SpectraSuite Datei
++++++++++++++++++++++++++++++++++++
Datum: Thu Jan 20 12:17:58 CET 2022
Benutzer: RMV
Dark-Spektrum vorhanden: Ja
Referenz-Spektrum vorhanden: Nein
Zahl der probierten Teilspektren: 1
Spektrometer: USB2+H07983
Integrationszeit (usec): 3170 (USB2+H07983)
Spektren Durchschnitt berechnet: 1 (USB2+H07983)
Boxcar Glättung: 0 (USB2+H07983)
Dunkelstromkorrektur: Nein (USB2+H07983)
Puls/Lampe aktiviert: Nein (USB2+H07983)
Correct for Detector Non-linearity: Nein (USB2+H07983)
Streulichtkorrektur: Nein (USB2+H07983)
Anzahl Pixel in verarbeitetem Spektrum: 2048
>>>>>Begin Processed Spectral Data<<<<<
339,47	-0,0000E00
339,85	-0,0000E00
340,24	-0,0000E00
340,62	-0,0000E00
341,01	-0,0000E00
341,39	-0,0000E00
341,77	-0,0000E00
342,16	-0,0000E00
342,54	-0,0000E00
342,92	-0,0000E00
343,31	-0,0000E00
343,69	-0,0000E00
344,07	-0,0000E00
344,46	-0,0000E00
344,84	-0,0000E00
345,22	-0,0000E00
345,61	-0,0000E00
345,99	-0,0000E00
346,37	-0,0000E00
346,76	-0,0000E00
347,14	-0,0000E00
347,52	-0,0000E00
347,91	-0,0000E00
348,29	-0,0000E00
348,67	-6,3823E00
349,05	-5,8349E00
349,44	-5,1751E00
349,82	-5,7769E00
350,20	-4,7467E00
350,59	-3,6356E00
350,97	-5,0080E00
351,35	-5,0740E00
351,73	-4,0441E00
352,12	-4,1263E00
352,50	-5,3293E00
352,88	-4,3286E00
353,26	-3,7885E00
353,65	-4,1637E00
354,03	-4,8512E00
354,41	-3,8828E00
354,79	-4,0056E00
355,17	-3,7737E00
355,56	-4,1225E00
355,94	-3,5579E00
356,32	-4,1590E00
356,70	-4,6011E00
357,08	-3,8622E00
357,47	-4,1800E00
357,85	-4,5141E00
358,23	-4,7155E00
358,61	-3,8016E00
358,99	-4,7230E00
359,38	-3,7830E00
359,76	-4,7602E00
360,14	-5,6703E00
360,52	-3,7385E00
360,90	-3,5891E00
361,28	-3,7843E00
361,66	-5,3465E00
362,05	-3,6209E00
362,43	-3,8728E00
362,81	-5,4712E00
363,19	-4,6758E00
363,57	-3,2356E00
363,95	-4,3538E00
364,33	-4,6576E00
364,71	-4,5760E00
365,10	-4,8133E00
365,48	-4,9146E00
365,86	-5,6400E00
366,24	-4,4292E00
366,62	-3,8371E00
367,00	-4,6422E00
367,38	-2,7238E00
367,76	-4,1076E00
368,14	-4,5646E00
368,52	-3,8216E00
368,90	-4,2034E00
369,28	-3,7211E00
369,66	-4,1852E00
370,04	-4,0404E00
370,42	-3,4796E00
370,81	-4,2645E00
371,19	-4,8209E00
371,57	-4,4762E00
371,95	-4,9884E00
372,33	-4,2063E00
372,71	-5,1763E00
373,09	-4,6588E00
373,47	-3,3083E00
373,85	-3,9229E00
374,23	-4,4234E00
374,61	-3,7447E00
374,99	-3,9267E00
375,37	-3,0445E00
375,75	-3,7803E00
376,13	-4,4369E00
376,51	-3,1608E00
376,88	-3,8985E00
377,26	-3,9106E00
377,64	-3,5098E00
378,02	-3,7696E00
378,40	-3,5237E00
378,78	-3,8467E00
379,16	-3,9046E00
379,54	-3,1438E00
379,92	-4,1409E00
380,30	-3,7330E00
380,68	-3,3487E00
381,06	-3,6970E00
381,44	-4,1995E00
381,82	-2,8452E00
382,20	-3,5368E00
382,57	-2,8516E00
382,95	-4,0775E00
383,33	-3,2388E00
383,71	-4,0361E00
384,09	-3,8581E00
384,47	-4,2351E00
384,85	-3,4854E00
385,23	-4,2932E00
385,60	-3,4610E00
385,98	-2,7312E00
386,36	-2,9021E00
386,74	-3,0851E00
387,12	-3,5426E00
387,50	-2,7136E00
387,88	-4,0893E00
388,25	-3,5333E00
388,63	-2,4460E00
389,01	-3,2882E00
389,39	-3,5633E00
389,77	-3,0682E00
390,14	-4,0259E00
390,52	-3,0223E00
390,90	-2,9391E00
391,28	-3,7842E00
391,66	-3,4815E00
392,03	-2,7588E00
392,41	-3,3137E00
392,79	-2,3233E00
393,17	-3,5382E00
393,54	-3,2667E00
393,92	-3,5595E00
394,30	-2,9301E00
394,68	-2,9923E00
395,06	-2,9514E00
395,43	-2,6223E00
395,81	-2,8672E00
396,19	-2,6830E00
396,56	-2,6724E00
396,94	-2,1775E00
397,32	-2,8535E00
397,70	-2,9277E00
398,07	-1,7834E00
398,45	-2,9869E00
398,83	-2,3693E00
399,20	-2,3250E00
399,58	-2,6737E00
399,96	-2,6409E00
400,34	-3,5490E00
400,71	-2,2291E00
401,09	-3,0017E00
401,47	-2,3862E00
401,84	-2,7102E00
402,22	-2,2742E00
402,60	-2,2151E00
402,97	-2,3145E00
403,35	-2,5037E00
403,73	-2,3906E00
404,10	-2,7023E00
404,48	-2,7376E00
404,85	-2,9463E00
405,23	-2,0933E00
405,61	-2,3664E00
405,98	-2,4470E00
406,36	-2,6261E00
406,74	-2,8112E00
407,11	-1,7466E00
407,49	-2,5940E00
407,86	-2,7850E00
408,24	-2,3646E00
408,62	-2,6596E00
408,99	-1,7813E00
409,37	-2,6162E00
409,74	-1,9621E00
410,12	-2,5954E00
410,49	-2,1074E00
410,87	-2,3225E00
411,25	-2,0606E00
411,62	-2,0964E00
412,00	-1,7500E00
412,37	-1,8972E00
412,75	-2,8108E00
413,12	-2,1094E00
413,50	-2,2931E00
413,87	-2,3326E00
414,25	-2,2561E00
414,62	-2,1441E00
415,00	-2,4852E00
415,37	-1,7949E00
415,75	-2,4079E00
416,12	-1,8379E00
416,50	-2,4981E00
416,87	-2,0820E00
417,25	-2,2630E00
417,62	-2,6415E00
418,00	-2,1964E00
418,37	-2,5979E00
418,75	-1,9808E00
419,12	-1,9854E00
419,50	-2,4073E00
419,87	-1,9571E00
420,25	-1,9238E00
420,62	-1,6852E00
420,99	-2,0726E00
421,37	-2,2075E00
421,74	-2,2446E00
422,12	-4,3681E00
422,49	-2,0046E00
422,87	-2,1825E00
423,24	-2,1142E00
423,61	-1,2071E00
423,99	-1,6311E00
424,36	-1,7715E00
424,74	-1,7914E00
425,11	-1,5939E00
425,48	-1,7493E00
425,86	-1,6575E00
426,23	-2,0759E00
426,60	-1,8395E00
426,98	-1,8558E00
427,35	-1,6811E00
427,73	-1,6492E00
428,10	-1,5393E00
428,47	-1,3579E00
428,85	-1,9652E00
429,22	-1,4416E00
429,59	-1,3679E00
429,97	-1,9234E00
430,34	-1,6962E00
430,71	-1,2619E00
431,09	-1,5461E00
431,46	-1,3464E00
431,83	-1,8794E00
432,21	-1,8444E00
432,58	-1,4697E00
432,95	-1,6405E00
433,32	-1,7753E00
433,70	-1,8407E00
434,07	-1,9530E00
434,44	-1,6341E00
434,82	-1,3425E00
435,19	-1,9110E00
435,56	-1,4992E00
435,93	-1,7184E00
436,31	-1,8922E00
436,68	-1,9808E00
437,05	-2,2137E00
437,42	-2,5733E00
437,80	-1,9961E00
438,17	-1,2449E00
438,54	-1,6984E00
438,91	-1,7025E00
439,28	-1,6126E00
439,66	-1,7702E00
440,03	-1,6080E00
440,40	-1,5884E00
440,77	-1,7231E00
441,14	-1,6761E00
441,52	-1,1658E00
441,89	-1,5603E00
442,26	-1,3132E00
442,63	-1,0786E00
443,00	-1,5762E00
443,38	-1,5895E00
443,75	-1,5355E00
444,12	-1,7146E00
444,49	-1,6410E00
444,86	-1,5679E00
445,23	-1,7269E00
445,60	-1,3463E00
445,98	-1,5427E00
446,35	-1,5556E00
446,72	-1,5409E00
447,09	-1,3249E00
447,46	-1,6107E00
447,83	-1,3772E00
448,20	-1,2295E00
448,57	-1,1229E00
448,94	-1,4852E00
449,32	-1,4324E00
449,69	-1,2254E00
450,06	-1,5411E00
450,43	-1,5033E00
450,80	-1,6000E00
451,17	-1,4156E00
451,54	-1,2135E00
451,91	-1,1305E00
452,28	-1,3481E00
452,65	-1,2664E00
453,02	-8,6829E-01
453,39	-1,4010E00
453,76	-1,3471E00
454,13	-1,2197E00
454,50	-1,4090E00
454,87	-1,1377E00
455,24	-2,0413E00
455,61	-1,0666E00
455,98	-1,2287E00
456,35	-1,5786E00
456,72	-1,4668E00
457,09	-1,3040E00
457,46	-1,4272E00
457,83	-1,2699E00
458,20	-1,6763E00
458,57	-1,3312E00
458,94	-1,2561E00
459,31	-1,6899E00
459,68	-1,0164E00
460,05	-1,0813E00
460,42	-1,3625E00
460,79	-1,3734E00
461,16	-1,3481E00
461,53	-1,3241E00
461,90	-1,3109E00
462,27	-1,1608E00
462,64	-1,5039E00
463,01	-9,6717E-01
463,38	-1,1061E00
463,75	-1,1931E00
464,12	-1,3793E00
464,48	-1,1821E00
464,85	-1,4564E00
465,22	-1,2039E00
465,59	-1,4265E00
465,96	-1,4506E00
466,33	-1,3777E00
466,70	-1,2336E00
467,07	-1,1900E00
467,44	-1,1596E00
467,80	-1,1289E00
468,17	-1,5216E00
468,54	-1,5759E00
468,91	-1,2871E00
469,28	-1,3799E00
469,65	-1,3937E00
470,02	-1,0038E00
470,38	-1,0489E00
470,75	-1,3981E00
471,12	-1,6205E00
471,49	-1,3857E00
471,86	-9,2973E-01
472,22	-1,2315E00
472,59	-7,9906E-01
472,96	-1,1513E00
473,33	-8,8777E-01
473,70	-1,1197E00
474,06	-9,5793E-01
474,43	-7,7978E-01
474,80	-9,2025E-01
475,17	-9,8262E-01
475,54	-1,0254E00
475,90	-1,0420E00
476,27	-8,1286E-01
476,64	-9,9767E-01
477,01	-1,0012E00
477,37	-9,5505E-01
477,74	-9,2746E-01
478,11	-9,4237E-01
478,48	-1,0291E00
478,84	-9,0376E-01
479,21	-9,4865E-01
479,58	-6,0126E-01
479,94	-7,7983E-01
480,31	-9,8875E-01
480,68	-7,7772E-01
481,05	-9,7070E-01
481,41	-6,1974E-01
481,78	-7,9311E-01
482,15	-7,0304E-01
482,51	-6,4722E-01
482,88	-7,0269E-01
483,25	-6,5825E-01
483,61	-8,1155E-01
483,98	-5,1696E-01
484,35	-5,1176E-01
484,71	-8,3266E-01
485,08	-6,1542E-01
485,45	-7,0803E-01
485,81	-7,4019E-01
486,18	-5,3010E-01
486,54	-8,5896E-01
486,91	-8,9396E-01
487,28	-4,2651E-01
487,64	-5,6689E-01
488,01	-6,5855E-01
488,38	-5,4306E-01
488,74	-5,8823E-01
489,11	-5,1165E-01
489,47	-4,8091E-01
489,84	-5,2150E-01
490,20	-4,1698E-01
490,57	-6,2786E-01
490,94	-3,8982E-01
491,30	-3,4414E-01
491,67	-6,1524E-01
492,03	-4,5430E-01
492,40	-5,3993E-01
492,76	-5,1964E-01
493,13	-5,0405E-01
493,50	-4,2647E-01
493,86	-4,8553E-01
494,23	-4,1320E-01
494,59	-2,3581E-01
494,96	-3,7169E-01
495,32	-2,9730E-01
495,69	-3,9556E-01
496,05	-3,0190E-01
496,42	-4,9003E-01
496,78	-4,4028E-01
497,15	-3,4831E-01
497,51	-2,5718E-01
497,88	-2,6768E-01
498,24	-2,7427E-01
498,61	-3,0781E-01
498,97	-2,8010E-01
499,34	-2,3710E-01
499,70	-1,1441E-01
500,06	-2,0916E-01
500,43	-1,9345E-01
500,79	-7,5676E-02
501,16	-1,9999E-01
501,52	-9,4093E-02
501,89	-1,5021E-01
502,25	-5,2450E-02
502,62	1,1210E-02
502,98	-1,3045E-01
503,34	1,0038E-01
503,71	-3,7082E-02
504,07	9,9910E-02
504,44	1,7730E-01
504,80	-3,6887E-03
505,16	8,8372E-02
505,53	1,1768E-01
505,89	1,3952E-01
506,26	1,3932E-01
506,62	3,1860E-01
506,98	3,3643E-01
507,35	1,7907E-01
507,71	1,5336E-01
508,07	3,2115E-01
508,44	3,1726E-01
508,80	2,7331E-01
509,16	4,7703E-01
509,53	3,8551E-01
509,89	4,9805E-01
510,25	4,6903E-01
510,62	4,4353E-01
510,98	6,2518E-01
511,34	4,2867E-01
511,71	4,5414E-01
512,07	5,3742E-01
512,43	5,7705E-01
512,80	6,6371E-01
513,16	5,0744E-01
513,52	7,4305E-01
513,88	6,1219E-01
514,25	7,7080E-01
514,61	7,9549E-01
514,97	6,9732E-01
515,33	9,1738E-01
515,70	9,8485E-01
516,06	7,5034E-01
516,42	8,5129E-01
516,78	9,0488E-01
517,15	9,7677E-01
517,51	9,7610E-01
517,87	1,0013E00
518,23	1,0125E00
518,60	1,0704E00
518,96	1,1102E00
519,32	1,0925E00
519,68	1,3571E00
520,04	1,2524E00
520,41	1,2160E00
520,77	1,2491E00
521,13	1,4555E00
521,49	1,2580E00
521,85	1,3454E00
522,22	1,3344E00
522,58	1,5086E00
522,94	1,5124E00
523,30	1,4723E00
523,66	1,6535E00
524,02	1,6719E00
524,38	1,7049E00
524,75	1,7266E00
525,11	1,8100E00
525,47	1,7629E00
525,83	1,8601E00
526,19	1,7798E00
526,55	1,8484E00
526,91	1,8052E00
527,27	2,2509E00
527,64	2,0534E00
528,00	2,2265E00
528,36	2,2189E00
528,72	2,1538E00
529,08	2,2542E00
529,44	2,2853E00
529,80	2,2384E00
530,16	2,4153E00
530,52	2,3240E00
530,88	2,4199E00
531,24	2,6061E00
531,60	2,3608E00
531,96	2,5433E00
532,32	2,5462E00
532,68	2,8469E00
533,04	2,6763E00
533,40	2,8199E00
533,77	2,8133E00
534,13	2,9013E00
534,49	2,8317E00
534,85	2,9067E00
535,21	3,0331E00
535,57	3,0879E00
535,93	3,2133E00
536,29	3,1748E00
536,65	3,1903E00
537,00	3,2490E00
537,36	3,2602E00
537,72	3,4087E00
538,08	3,4587E00
538,44	3,4483E00
538,80	3,5911E00
539,16	3,5335E00
539,52	3,5319E00
539,88	3,6417E00
540,24	3,6691E00
540,60	3,7680E00
540,96	3,7879E00
541,32	4,1062E00
541,68	3,9748E00
542,04	4,0715E00
542,40	4,0427E00
542,75	3,9920E00
543,11	4,1358E00
543,47	4,3384E00
543,83	4,3645E00
544,19	4,2574E00
544,55	4,5667E00
544,91	4,5000E00
545,27	4,3265E00
545,63	4,5453E00
545,98	4,6436E00
546,34	4,6782E00
546,70	4,5312E00
547,06	4,6689E00
547,42	4,8345E00
547,78	4,9247E00
548,13	5,0918E00
548,49	5,2741E00
548,85	5,0488E00
549,21	5,3663E00
549,57	5,2325E00
549,93	5,4454E00
550,28	5,2208E00
550,64	5,5273E00
551,00	5,6380E00
551,36	5,6655E00
551,71	5,5548E00
552,07	6,0357E00
552,43	6,0614E00
552,79	5,9416E00
553,15	5,8856E00
553,50	5,9539E00
553,86	6,2578E00
554,22	6,1540E00
554,58	6,4216E00
554,93	6,6101E00
555,29	6,4463E00
555,65	6,5662E00
556,01	6,7352E00
556,36	6,7120E00
556,72	7,0345E00
557,08	6,8855E00
557,43	7,1237E00
557,79	6,8227E00
558,15	7,0847E00
558,50	7,2289E00
558,86	7,4511E00
559,22	7,3756E00
559,58	7,6806E00
559,93	7,5128E00
560,29	7,5137E00
560,65	8,1391E00
561,00	7,9237E00
561,36	8,2095E00
561,71	8,0948E00
562,07	7,9007E00
562,43	8,3603E00
562,78	8,3913E00
563,14	8,5418E00
563,50	8,5236E00
563,85	8,1504E00
564,21	8,6567E00
564,57	8,8484E00
564,92	8,9569E00
565,28	9,0515E00
565,63	9,1310E00
565,99	9,1972E00
566,35	9,0899E00
566,70	9,4349E00
567,06	9,5701E00
567,41	9,7767E00
567,77	9,5495E00
568,12	9,6356E00
568,48	9,6734E00
568,83	9,8354E00
569,19	1,0160E01
569,55	1,0079E01
569,90	1,0292E01
570,26	1,0011E01
570,61	1,0206E01
570,97	1,0130E01
571,32	1,0538E01
571,68	1,0474E01
572,03	1,0677E01
572,39	1,0687E01
572,74	1,0996E01
573,10	1,1151E01
573,45	1,1253E01
573,81	1,1259E01
574,16	1,1247E01
574,52	1,1253E01
574,87	1,1423E01
575,23	1,1542E01
575,58	1,1573E01
575,94	1,1419E01
576,29	1,2099E01
576,64	1,1953E01
577,00	1,2083E01
577,35	1,1855E01
577,71	1,1974E01
578,06	1,2281E01
578,42	1,2518E01
578,77	1,2433E01
579,12	1,2612E01
579,48	1,2629E01
579,83	1,2720E01
580,19	1,2780E01
580,54	1,2910E01
580,89	1,3108E01
581,25	1,2846E01
581,60	1,2973E01
581,96	1,3560E01
582,31	1,3349E01
582,66	1,3530E01
583,02	1,3617E01
583,37	1,3369E01
583,72	1,3313E01
584,08	1,3706E01
584,43	1,4091E01
584,78	1,3901E01
585,14	1,3668E01
585,49	1,3963E01
585,84	1,3659E01
586,20	1,3982E01
586,55	1,3976E01
586,90	1,4258E01
587,26	1,4277E01
587,61	1,4452E01
587,96	1,4625E01
588,32	1,4301E01
588,67	1,4729E01
589,02	1,4549E01
589,37	1,4615E01
589,73	1,5192E01
590,08	1,4940E01
590,43	1,5200E01
590,78	1,4834E01
591,14	1,5204E01
591,49	1,5014E01
591,84	1,5091E01
592,19	1,4937E01
592,55	1,5370E01
592,90	1,5306E01
593,25	1,5212E01
593,60	1,5050E01
593,96	1,5153E01
594,31	1,5227E01
594,66	1,5797E01
595,01	1,5566E01
595,36	1,5174E01
595,72	1,5442E01
596,07	1,5452E01
596,42	1,5498E01
596,77	1,5964E01
597,12	1,6122E01
597,47	1,5876E01
597,83	1,6145E01
598,18	1,5602E01
598,53	1,5823E01
598,88	1,6242E01
599,23	1,5840E01
599,58	1,6080E01
599,93	1,5992E01
600,29	1,6386E01
600,64	1,6182E01
600,99	1,6054E01
601,34	1,5980E01
601,69	1,5850E01
602,04	1,6020E01
602,39	1,6301E01
602,74	1,5931E01
603,09	1,5830E01
603,44	1,6564E01
603,80	1,5951E01
604,15	1,5728E01
604,50	1,5865E01
604,85	1,5911E01
605,20	1,5993E01
605,55	1,6187E01
605,90	1,5852E01
606,25	1,6098E01
606,60	1,6128E01
606,95	1,6214E01
607,30	1,5685E01
607,65	1,6166E01
608,00	1,5993E01
608,35	1,5951E01
608,70	1,5784E01
609,05	1,6103E01
609,40	1,6026E01
609,75	1,5835E01
610,10	1,5973E01
610,45	1,5966E01
610,80	1,5870E01
611,15	1,5807E01
611,50	1,5996E01
611,85	1,5217E01
612,20	1,5535E01
612,55	1,5968E01
612,90	1,5868E01
613,25	1,5440E01
613,60	1,5462E01
613,95	1,5441E01
614,30	1,5506E01
614,64	1,5104E01
614,99	1,5412E01
615,34	1,5174E01
615,69	1,5433E01
616,04	1,5630E01
616,39	1,5257E01
616,74	1,5045E01
617,09	1,5198E01
617,44	1,5107E01
617,79	1,4955E01
618,13	1,5216E01
618,48	1,5061E01
618,83	1,4658E01
619,18	1,4612E01
619,53	1,4813E01
619,88	1,4657E01
620,23	1,4536E01
620,57	1,4512E01
620,92	1,4554E01
621,27	1,4808E01
621,62	1,4540E01
621,97	1,4448E01
622,32	1,4641E01
622,66	1,4684E01
623,01	1,4141E01
623,36	1,3717E01
623,71	1,4470E01
624,06	1,4424E01
624,40	1,4173E01
624,75	1,4454E01
625,10	1,4276E01
625,45	1,3993E01
625,80	1,3957E01
626,14	1,4301E01
626,49	1,3861E01
626,84	1,3925E01
627,19	1,3554E01
627,53	1,3613E01
627,88	1,3023E01
628,23	1,3992E01
628,57	1,3576E01
628,92	1,3339E01
629,27	1,3703E01
629,62	1,2796E01
629,96	1,3064E01
630,31	1,3079E01
630,66	1,2864E01
631,00	1,2699E01
631,35	1,2764E01
631,70	1,3134E01
632,05	1,2550E01
632,39	1,2836E01
632,74	1,2470E01
633,09	1,2486E01
633,43	1,2682E01
633,78	1,2337E01
634,12	1,2442E01
634,47	1,2352E01
634,82	1,2273E01
635,16	1,2262E01
635,51	1,2189E01
635,86	1,1997E01
636,20	1,2244E01
636,55	1,1892E01
636,90	1,2071E01
637,24	1,1755E01
637,59	1,1526E01
637,93	1,1469E01
638,28	1,1648E01
638,63	1,1422E01
638,97	1,1788E01
639,32	1,1140E01
639,66	1,0910E01
640,01	1,1389E01
640,35	1,0832E01
640,70	1,0841E01
641,04	1,0908E01
641,39	1,0689E01
641,74	1,0762E01
642,08	1,0834E01
642,43	1,1091E01
642,77	1,0594E01
643,12	1,0649E01
643,46	1,0670E01
643,81	1,0092E01
644,15	1,0475E01
644,50	1,0105E01
644,84	1,0116E01
645,19	9,3468E00
645,53	1,0029E01
645,88	9,5865E00
646,22	1,0015E01
646,57	9,8557E00
646,91	9,7747E00
647,26	9,4326E00
647,60	9,6394E00
647,94	1,0133E01
648,29	8,8043E00
648,63	9,4855E00
648,98	8,8501E00
649,32	9,6172E00
649,67	8,9574E00
650,01	9,1563E00
650,36	9,1020E00
650,70	9,1128E00
651,04	9,3446E00
651,39	9,1805E00
651,73	8,7729E00
652,08	8,5895E00
652,42	8,8863E00
652,76	8,3798E00
653,11	8,6276E00
653,45	8,6673E00
653,79	8,0969E00
654,14	8,1753E00
654,48	7,8907E00
654,83	8,1785E00
655,17	7,9403E00
655,51	7,7866E00
655,86	7,8444E00
656,20	7,5522E00
656,54	7,6945E00
656,89	7,5597E00
657,23	7,5977E00
657,57	7,6700E00
657,91	7,5806E00
658,26	7,9155E00
658,60	7,4493E00
658,94	7,3322E00
659,29	7,5601E00
659,63	7,3386E00
659,97	7,2099E00
660,32	7,0820E00
660,66	7,1917E00
661,00	7,2375E00
661,34	7,0351E00
661,69	7,3541E00
662,03	7,0842E00
662,37	6,8311E00
662,71	6,7326E00
663,06	6,6080E00
663,40	6,7929E00
663,74	6,5214E00
664,08	6,4360E00
664,42	6,4491E00
664,77	6,4500E00
665,11	6,3528E00
665,45	6,7176E00
665,79	5,7764E00
666,13	5,9542E00
666,48	5,9905E00
666,82	5,9856E00
667,16	5,7802E00
667,50	5,6876E00
667,84	5,9761E00
668,18	5,8811E00
668,53	6,1277E00
668,87	5,9921E00
669,21	5,9867E00
669,55	5,4170E00
669,89	5,2517E00
670,23	5,7361E00
670,57	5,4224E00
670,92	5,0816E00
671,26	5,0892E00
671,60	5,2886E00
671,94	5,2226E00
672,28	5,1346E00
672,62	5,2245E00
672,96	5,2520E00
673,30	5,0809E00
673,64	5,0327E00
673,98	4,9333E00
674,33	4,9470E00
674,67	4,6724E00
675,01	4,8318E00
675,35	4,9237E00
675,69	5,0002E00
676,03	4,7671E00
676,37	4,3091E00
676,71	4,6176E00
677,05	4,4906E00
677,39	4,4506E00
677,73	4,1668E00
678,07	4,6671E00
678,41	4,2944E00
678,75	4,4157E00
679,09	3,9290E00
679,43	4,0674E00
679,77	4,4317E00
680,11	4,2528E00
680,45	3,8248E00
680,79	4,0850E00
681,13	3,9677E00
681,47	3,6723E00
681,81	3,7631E00
682,15	3,8642E00
682,49	3,2088E00
682,83	3,4067E00
683,17	3,3103E00
683,51	3,6732E00
683,84	3,7005E00
684,18	3,6870E00
684,52	3,7067E00
684,86	3,2595E00
685,20	3,4865E00
685,54	3,2790E00
685,88	3,5998E00
686,22	2,9436E00
686,56	3,3164E00
686,90	2,9624E00
687,24	3,6008E00
687,57	3,4330E00
687,91	3,0830E00
688,25	3,0840E00
688,59	2,7316E00
688,93	2,9557E00
689,27	2,4963E00
689,61	2,6522E00
689,94	2,7207E00
690,28	3,0612E00
690,62	2,8582E00
690,96	2,9559E00
691,30	2,8933E00
691,64	2,2211E00
691,97	2,6886E00
692,31	2,3225E00
692,65	2,5610E00
692,99	2,3003E00
693,33	2,9337E00
693,66	2,3306E00
694,00	2,3636E00
694,34	2,0180E00
694,68	2,2040E00
695,01	2,1376E00
695,35	2,1434E00
695,69	2,0303E00
696,03	2,4204E00
696,36	1,7558E00
696,70	2,2585E00
697,04	1,2669E00
697,38	1,5393E00
697,71	1,6369E00
698,05	1,9955E00
698,39	2,0205E00
698,72	1,4728E00
699,06	1,9846E00
699,40	1,4244E00
699,74	2,0064E00
700,07	1,5283E00
700,41	1,6090E00
700,75	1,5851E00
701,08	1,6472E00
701,42	1,9016E00
701,76	1,8211E00
702,09	1,8371E00
702,43	1,1542E00
702,77	1,7808E00
703,10	1,8836E00
703,44	1,5859E00
703,77	1,2961E00
704,11	1,3098E00
704,45	8,4948E-01
704,78	1,4660E00
705,12	1,0134E00
705,46	1,1255E00
705,79	9,3849E-01
706,13	1,2112E00
706,46	1,1138E00
706,80	9,3588E-01
707,14	9,6839E-01
707,47	9,2051E-01
707,81	1,0343E00
708,14	8,0326E-01
708,48	7,9544E-01
708,81	1,2476E00
709,15	6,5628E-01
709,48	1,6250E00
709,82	7,6325E-01
710,16	1,0757E00
710,49	5,8093E-01
710,83	1,0820E00
711,16	1,3567E-01
711,50	6,1741E-01
711,83	5,8774E-01
712,17	8,5239E-01
712,50	1,0027E00
712,84	3,9164E-01
713,17	7,3234E-01
713,51	4,3663E-01
713,84	5,7689E-01
714,18	1,7141E-01
714,51	2,2570E-01
714,85	3,5566E-01
715,18	1,9464E-01
715,51	4,0141E-01
715,85	1,6326E-01
716,18	1,4193E-01
716,52	3,1783E-01
716,85	3,2992E-02
717,19	-2,2065E-02
717,52	-5,5346E-02
717,86	0,0000E00
718,19	1,5613E-01
718,52	2,9106E-01
718,86	4,3813E-01
719,19	3,2686E-01
719,53	3,6199E-01
719,86	5,9063E-01
720,19	2,0517E-01
720,53	-3,8897E-01
720,86	2,2958E-01
721,19	1,9585E-01
721,53	4,3925E-01
721,86	-3,3628E-01
722,20	2,0937E-01
722,53	1,6339E-01
722,86	-3,8638E-01
723,20	2,1133E-01
723,53	-8,2363E-02
723,86	-4,6003E-01
724,20	-2,8377E-01
724,53	-2,6082E-01
724,86	-2,3769E-01
725,19	-1,4287E-01
725,53	-1,6708E-01
725,86	0,0000E00
726,19	-4,6740E-01
726,53	-1,3210E-01
726,86	-1,9264E-01
727,19	-1,2073E-01
727,53	-4,3553E-01
727,86	-9,5800E-01
728,19	8,5051E-02
728,52	-3,7748E-01
728,86	-2,8079E-01
729,19	-4,8941E-02
729,52	-5,7637E-01
729,85	-3,8087E-01
730,19	-9,3601E-01
730,52	-9,8714E-02
730,85	-4,6965E-01
731,18	-6,3173E-01
731,51	-7,0763E-01
731,85	-3,2359E-01
732,18	-2,6190E-01
732,51	-2,1252E-01
732,84	-6,6409E-01
733,17	-5,7774E-01
733,51	-1,0576E00
733,84	-7,1934E-01
734,17	-7,0858E-01
734,50	-2,9182E-01
734,83	-2,9258E-01
735,16	-7,1394E-01
735,50	-1,3039E00
735,83	-6,4084E-01
736,16	-8,0933E-01
736,49	-8,3684E-01
736,82	-5,5491E-01
737,15	-1,2032E00
737,48	-9,5969E-01
737,81	-4,2901E-01
738,15	-4,8231E-01
738,48	-9,8028E-01
738,81	-6,8141E-01
739,14	-9,0593E-01
739,47	-8,1600E-01
739,80	-6,7284E-01
740,13	-8,2063E-01
740,46	-7,1666E-01
740,79	-1,0645E00
741,12	-1,5082E00
741,45	-1,0172E00
741,78	-9,2574E-01
742,11	-1,2106E00
742,44	-9,8463E-01
742,78	-9,2021E-01
743,11	-1,1129E00
743,44	-1,2927E00
743,77	-1,2818E00
744,10	-1,0121E00
744,43	-1,2479E00
744,76	-1,1685E00
745,09	-9,7820E-01
745,42	-9,1179E-01
745,75	-1,0112E00
746,08	-1,3754E00
746,41	-1,6572E00
746,74	-1,7453E00
747,07	-1,1069E00
747,40	-9,1356E-01
747,72	-1,0990E00
748,05	-1,0036E00
748,38	-9,7818E-01
748,71	-1,6788E00
749,04	-1,1701E00
749,37	-1,7747E00
749,70	-1,4353E00
750,03	-1,4397E00
750,36	-2,2528E00
750,69	-1,8972E00
751,02	-1,3803E00
751,35	-1,4867E00
751,68	-1,7105E00
752,00	-1,6131E00
752,33	-1,4562E00
752,66	-1,7704E00
752,99	-1,2581E00
753,32	-2,0790E00
753,65	-1,9813E00
753,98	-1,8828E00
754,31	-1,8440E00
754,63	-1,5042E00
754,96	-1,7201E00
755,29	-1,6498E00
755,62	-1,7006E00
755,95	-2,0866E00
756,28	-1,7263E00
756,60	-1,7469E00
756,93	-2,1056E00
757,26	-2,0658E00
757,59	-1,3457E00
757,92	-1,6131E00
758,24	-2,1621E00
758,57	-1,6547E00
758,90	-1,6287E00
759,23	-2,4662E00
759,56	-1,6706E00
759,88	-1,8346E00
760,21	-1,5073E00
760,54	-2,3709E00
760,87	-1,5168E00
761,19	-2,9473E00
761,52	-2,2663E00
761,85	-2,2577E00
762,18	-1,4557E00
762,50	-1,9631E00
762,83	-1,8557E00
763,16	-1,8939E00
763,49	-1,8342E00
763,81	-2,4476E00
764,14	-1,7146E00
764,47	-1,0750E00
764,79	-2,4885E00
765,12	-1,4480E00
765,45	-2,3702E00
765,77	-1,9424E00
766,10	-1,8979E00
766,43	-2,3760E00
766,75	-2,2487E00
767,08	-1,5948E00
767,41	-1,8550E00
767,73	-2,3220E00
768,06	-1,3185E00
768,39	-2,2004E00
768,71	-2,2075E00
769,04	-2,0242E00
769,36	-2,1690E00
769,69	-2,6302E00
770,02	-1,7479E00
770,34	-2,4718E00
770,67	-1,8295E00
770,99	-2,0839E00
771,32	-2,2322E00
771,65	-2,5963E00
771,97	-1,8017E00
772,30	-2,6676E00
772,62	-2,4441E00
772,95	-2,0386E00
773,27	-1,9543E00
773,60	-2,9606E00
773,93	-2,6807E00
774,25	-2,7808E00
774,58	-2,2212E00
774,90	-2,8016E00
775,23	-2,1272E00
775,55	-2,6555E00
775,88	-2,4981E00
776,20	-2,6581E00
776,53	-2,5195E00
776,85	-2,9472E00
777,18	-2,1437E00
777,50	-3,1429E00
777,83	-2,8318E00
778,15	-2,8261E00
778,48	-2,5678E00
778,80	-3,3758E00
779,13	-3,0981E00
779,45	-2,5839E00
779,78	-2,3583E00
780,10	-1,7157E00
780,42	-3,2063E00
780,75	-2,5025E00
781,07	-2,7305E00
781,40	-2,0987E00
781,72	-2,4250E00
782,05	-2,2098E00
782,37	-1,8926E00
782,69	-3,4482E00
783,02	-3,2092E00
783,34	-2,4047E00
783,67	-2,5292E00
783,99	-2,5911E00
784,31	-1,9840E00
784,64	-2,4911E00
784,96	-3,2006E00
785,28	-2,9365E00
785,61	-2,8337E00
785,93	-3,8418E00
786,25	-2,4650E00
786,58	-3,0088E00
786,90	-3,0055E00
787,22	-3,3245E00
787,55	-3,0778E00
787,87	-3,0537E00
788,19	-2,7468E00
788,52	-3,2216E00
788,84	-2,4969E00
789,16	-2,8917E00
789,49	-2,7272E00
789,81	-3,3574E00
790,13	-3,1535E00
790,46	-3,5243E00
790,78	-2,4111E00
791,10	-2,0530E00
791,42	-1,9309E00
791,75	-3,2676E00
792,07	-3,2061E00
792,39	-3,0848E00
792,71	-2,5708E00
793,04	-3,5882E00
793,36	-2,9987E00
793,68	-3,8763E00
794,00	-3,1898E00
794,32	-1,9758E00
794,65	-2,2880E00
794,97	-2,3868E00
795,29	-3,2855E00
795,61	-2,3079E00
795,93	-2,8352E00
796,26	-3,2473E00
796,58	-3,0740E00
796,90	-2,9000E00
797,22	-3,0411E00
797,54	-2,8478E00
797,87	-2,6151E00
798,19	-2,0870E00
798,51	-3,2906E00
798,83	-2,9020E00
799,15	-2,8468E00
799,47	-3,3867E00
799,79	-2,5997E00
800,12	-3,3581E00
800,44	-2,6877E00
800,76	-2,9322E00
801,08	-2,6184E00
801,40	-3,3456E00
801,72	-3,5741E00
802,04	-3,2416E00
802,36	-3,0285E00
802,68	-3,4626E00
803,00	-3,6945E00
803,32	-3,1547E00
803,65	-3,5320E00
803,97	-2,3951E00
804,29	-3,3669E00
804,61	-3,2537E00
804,93	-3,4898E00
805,25	-2,8168E00
805,57	-3,2204E00
805,89	-3,9786E00
806,21	-2,7783E00
806,53	-3,2302E00
806,85	-3,0105E00
807,17	-2,9785E00
807,49	-2,8202E00
807,81	-2,8096E00
808,13	-2,7974E00
808,45	-2,8081E00
808,77	-3,5088E00
809,09	-4,5370E00
809,41	-3,2317E00
809,73	-2,7880E00
810,05	-3,2342E00
810,37	-3,5318E00
810,69	-3,4133E00
811,01	-2,9844E00
811,33	-3,8822E00
811,64	-4,3892E00
811,96	-4,0025E00
812,28	-3,6134E00
812,60	-3,9656E00
812,92	-3,9134E00
813,24	-3,7237E00
813,56	-3,8524E00
813,88	-3,5241E00
814,20	-4,4111E00
814,52	-3,7118E00
814,83	-3,4271E00
815,15	-4,3241E00
815,47	-3,3382E00
815,79	-2,9745E00
816,11	-3,3165E00
816,43	-3,2587E00
816,75	-2,7974E00
817,06	-2,9524E00
817,38	-3,4180E00
817,70	-3,5509E00
818,02	-4,1451E00
818,34	-3,6292E00
818,66	-3,3530E00
818,97	-3,8313E00
819,29	-4,1188E00
819,61	-4,1344E00
819,93	-3,8540E00
820,25	-3,9686E00
820,56	-4,1085E00
820,88	-4,3484E00
821,20	-3,3145E00
821,52	-3,1259E00
821,84	-3,8976E00
822,15	-3,7352E00
822,47	-4,0550E00
822,79	-3,6619E00
823,11	-4,1127E00
823,42	-4,9826E00
823,74	-3,9902E00
824,06	-5,1499E00
824,37	-4,1005E00
824,69	-4,2463E00
825,01	-5,1296E00
825,33	-4,1462E00
825,64	-5,5134E00
825,96	-4,3369E00
826,28	-4,3238E00
826,59	-4,9567E00
826,91	-4,5429E00
827,23	-3,8319E00
827,54	-4,9819E00
827,86	-4,1579E00
828,18	-4,2268E00
828,49	-4,3516E00
828,81	-4,7498E00
829,13	-4,7918E00
829,44	-4,6991E00
829,76	-4,5514E00
830,08	-4,5403E00
830,39	-4,9205E00
830,71	-4,2354E00
831,02	-4,9848E00
831,34	-4,6350E00
831,66	-4,2826E00
831,97	-3,4745E00
832,29	-4,6612E00
832,60	-4,3072E00
832,92	-3,3149E00
833,23	-3,7608E00
833,55	-5,1395E00
833,87	-4,7220E00
834,18	-4,7414E00
834,50	-4,4336E00
834,81	-4,1560E00
835,13	-4,4669E00
835,44	-4,4213E00
835,76	-4,4656E00
836,07	-5,3167E00
836,39	-5,3637E00
836,70	-4,7201E00
837,02	-4,8852E00
837,33	-4,6311E00
837,65	-5,0425E00
837,96	-4,3907E00
838,28	-5,2020E00
838,59	-4,6375E00
838,91	-5,7323E00
839,22	-6,1818E00
839,54	-3,8128E00
839,85	-4,1340E00
840,17	-4,7058E00
840,48	-3,9045E00
840,80	-4,0042E00
841,11	-5,6120E00
841,43	-5,4323E00
841,74	-5,0617E00
842,05	-5,8884E00
842,37	-3,9453E00
842,68	-5,8877E00
843,00	-5,2099E00
843,31	-5,7398E00
843,62	-4,3216E00
843,94	-5,6941E00
844,25	-4,8796E00
844,57	-5,1277E00
844,88	-5,2528E00
845,19	-4,4931E00
845,51	-6,1316E00
845,82	-5,5944E00
846,13	-5,5836E00
846,45	-4,9721E00
846,76	-5,1912E00
847,07	-6,5898E00
847,39	-4,3530E00
847,70	-5,4876E00
848,01	-5,3422E00
848,33	-5,7037E00
848,64	-5,2451E00
848,95	-3,7497E00
849,27	-6,2858E00
849,58	-6,8316E00
849,89	-4,6310E00
850,21	-6,3274E00
850,52	-5,5797E00
850,83	-5,4588E00
851,14	-5,8677E00
851,46	-6,2056E00
851,77	-6,2648E00
852,08	-6,0736E00
852,39	-5,7052E00
852,71	-6,0864E00
853,02	-5,2766E00
853,33	-5,2183E00
853,64	-5,5990E00
853,96	-5,1447E00
854,27	-4,4689E00
854,58	-4,8540E00
854,89	-6,7524E00
855,20	-5,4065E00
855,52	-5,3873E00
855,83	-5,4038E00
856,14	-7,4440E00
856,45	-5,9329E00
856,76	-6,2960E00
857,07	-6,6619E00
857,39	-5,9271E00
857,70	-6,2120E00
858,01	-7,3034E00
858,32	-6,1416E00
858,63	-6,5109E00
858,94	-7,2306E00
859,25	-6,3296E00
859,57	-7,0568E00
859,88	-5,7940E00
860,19	-6,3254E00
860,50	-7,6933E00
860,81	-6,5750E00
861,12	-6,0055E00
861,43	-5,3914E00
861,74	-6,1741E00
862,05	-5,9972E00
862,36	-5,6183E00
862,67	-4,8703E00
862,99	-5,5377E00
863,30	-8,2971E00
863,61	-6,8981E00
863,92	-6,3479E00
864,23	-6,7878E00
864,54	-5,0733E00
864,85	-5,7626E00
865,16	-7,6733E00
865,47	-6,5263E00
865,78	-8,4567E00
866,09	-7,8112E00
866,40	-5,1608E00
866,71	-7,3653E00
867,02	-6,2374E00
867,33	-6,9991E00
867,64	-4,7279E00
867,95	-4,0075E00
868,26	-4,3768E00
868,57	-8,0481E00
868,88	-8,4849E00
869,19	-6,8390E00
869,50	-6,4230E00
869,81	-7,7094E00
870,12	-7,1197E00
870,42	-6,2025E00
870,73	-6,6424E00
871,04	-7,3203E00
871,35	-6,6667E00
871,66	-6,8368E00
871,97	-8,4983E00
872,28	-7,2324E00
872,59	-7,9760E00
872,90	-1,1422E01
873,21	-6,5968E00
873,52	-8,7295E00
873,82	-8,5370E00
874,13	-7,3332E00
874,44	-7,3712E00
874,75	-8,0444E00
875,06	-7,7480E00
875,37	-7,9347E00
875,68	-6,3948E00
875,98	-7,3262E00
876,29	-8,0605E00
876,60	-8,6050E00
876,91	-7,5892E00
877,22	-8,1383E00
877,52	-8,8934E00
877,83	-7,8090E00
878,14	-7,5960E00
878,45	-9,0420E00
878,76	-9,7196E00
879,06	-7,4602E00
879,37	-9,3990E00
879,68	-9,9850E00
879,99	-9,3987E00
880,30	-8,3730E00
880,60	-9,6046E00
880,91	-1,0085E01
881,22	-8,7773E00
881,53	-8,4901E00
881,83	-7,8125E00
882,14	-1,1167E01
882,45	-9,4420E00
882,75	-9,2035E00
883,06	-9,9158E00
883,37	-9,2777E00
883,68	-9,3196E00
883,98	-8,7319E00
884,29	-9,6216E00
884,60	-1,0339E01
884,90	-1,0373E01
885,21	-1,1095E01
885,52	-8,1284E00
885,82	-8,7233E00
886,13	-8,2329E00
886,44	-8,5982E00
886,74	-8,5602E00
887,05	-1,0680E01
887,36	-7,1908E00
887,66	-9,7810E00
887,97	-9,8598E00
888,27	-8,1163E00
888,58	-1,0606E01
888,89	-1,0624E01
889,19	-8,4021E00
889,50	-1,0837E01
889,80	-1,1152E01
890,11	-7,1308E00
890,42	-1,1364E01
890,72	-9,4175E00
891,03	-8,6565E00
891,33	-8,4902E00
891,64	-1,0057E01
891,94	-9,2913E00
892,25	-7,2037E00
892,56	-9,1291E00
892,86	-8,9019E00
893,17	-1,1687E01
893,47	-1,1097E01
893,78	-8,8745E00
894,08	-9,3008E00
894,39	-9,5508E00
894,69	-8,0438E00
895,00	-9,5037E00
895,30	-9,1460E00
895,61	-1,0547E01
895,91	-1,0861E01
896,22	-1,0257E01
896,52	-1,1051E01
896,83	-1,0267E01
897,13	-1,0210E01
897,43	-1,2102E01
897,74	-8,2160E00
898,04	-6,3329E00
898,35	-9,5027E00
898,65	-9,0198E00
898,96	-1,0423E01
899,26	-1,1100E01
899,57	-8,6679E00
899,87	-1,2520E01
900,17	-9,7146E00
900,48	-9,1094E00
900,78	-8,8077E00
901,09	-1,1810E01
901,39	-1,0659E01
901,69	-9,9913E00
902,00	-1,1224E01
902,30	-8,9680E00
902,60	-1,1685E01
902,91	-1,0165E01
903,21	-1,0490E01
903,51	-1,0325E01
903,82	-9,6053E00
904,12	-8,4513E00
904,42	-1,0220E01
904,73	-8,5596E00
905,03	-1,1527E01
905,33	-1,0494E01
905,64	-9,5745E00
905,94	-9,5977E00
906,24	-9,7452E00
906,55	-9,7116E00
906,85	-7,7013E00
907,15	-8,2307E00
907,45	-1,1322E01
907,76	-9,5507E00
908,06	-8,8658E00
908,36	-1,0245E01
908,66	-9,8940E00
908,97	-1,0894E01
909,27	-1,0538E01
909,57	-8,4805E00
909,87	-7,4527E00
910,18	-1,0892E01
910,48	-1,1061E01
910,78	-8,5269E00
911,08	-1,0814E01
911,39	-1,1324E01
911,69	-1,1231E01
911,99	-1,1879E01
912,29	-1,2004E01
912,59	-1,4365E01
912,89	-1,1914E01
913,20	-1,1159E01
913,50	-1,0802E01
913,80	-1,1896E01
914,10	-9,7343E00
914,40	-1,3490E01
914,70	-1,4055E01
915,01	-1,3714E01
915,31	-1,0306E01
915,61	-1,1432E01
915,91	-1,2649E01
916,21	-1,1789E01
916,51	-1,3022E01
916,81	-1,2293E01
917,11	-1,0968E01
917,41	-1,1546E01
917,72	-1,1624E01
918,02	-1,1989E01
918,32	-1,3785E01
918,62	-1,4015E01
918,92	-1,1124E01
919,22	-1,3332E01
919,52	-1,4254E01
919,82	-1,4101E01
920,12	-1,3094E01
920,42	-1,2629E01
920,72	-1,2555E01
921,02	-1,3267E01
921,32	-1,4323E01
921,62	-1,5717E01
921,92	-1,3392E01
922,22	-1,3820E01
922,52	-1,3260E01
922,82	-1,4020E01
923,12	-1,5379E01
923,42	-8,4123E00
923,72	-9,4866E00
924,02	-1,2871E01
924,32	-1,5364E01
924,62	-1,3228E01
924,92	-1,2194E01
925,22	-1,4393E01
925,52	-1,3707E01
925,82	-1,4621E01
926,12	-1,4017E01
926,42	-1,6125E01
926,72	-1,0327E01
927,02	-1,3637E01
927,31	-1,5615E01
927,61	-1,6965E01
927,91	-1,8506E01
928,21	-1,7792E01
928,51	-1,9062E01
928,81	-1,1288E01
929,11	-1,5745E01
929,41	-1,7820E01
929,71	-1,4900E01
930,00	-1,7220E01
930,30	-1,2440E01
930,60	-1,6384E01
930,90	-1,6423E01
931,20	-1,5550E01
931,50	-1,4874E01
931,79	-1,4926E01
932,09	-1,6474E01
932,39	-1,7943E01
932,69	-1,8356E01
932,99	-1,9212E01
933,29	-1,7758E01
933,58	-1,7747E01
933,88	-1,9446E01
934,18	-1,5307E01
934,48	-1,9221E01
934,77	-1,6845E01
935,07	-2,0997E01
935,37	-2,4406E01
935,67	-2,3518E01
935,97	-2,1748E01
936,26	-2,0687E01
936,56	-2,5600E01
936,86	-1,6117E01
937,15	-2,3627E01
937,45	-1,9991E01
937,75	-1,5280E01
938,05	-1,7780E01
938,34	-1,8257E01
938,64	-2,4931E01
938,94	-1,5848E01
939,23	-2,4819E01
939,53	-2,2981E01
939,83	-1,9541E01
940,12	-2,7802E01
940,42	-3,6063E01
940,72	-2,6713E01
941,01	-2,2190E01
941,31	-2,4970E01
941,61	-2,8806E01
941,90	-2,4535E01
942,20	-3,2760E01
942,50	-2,7822E01
942,79	-2,0527E01
943,09	-2,3578E01
943,38	-2,8763E01
943,68	-3,0989E01
943,98	-2,7696E01
944,27	-3,3248E01
944,57	-2,8270E01
944,86	-2,7735E01
945,16	-3,4744E01
945,46	-2,9336E01
945,75	-3,6983E01
946,05	-3,5583E01
946,34	-2,3914E01
946,64	-3,2650E01
946,93	-3,1333E01
947,23	-3,4744E01
947,52	-3,5466E01
947,82	-3,0998E01
948,12	-2,9849E01
948,41	-3,2057E01
948,71	-3,8441E01
949,00	-2,6767E01
949,30	-3,4666E01
949,59	-4,0002E01
949,89	-2,8609E01
950,18	-3,4619E01
950,48	-3,1253E01
950,77	-3,5756E01
951,06	-3,3452E01
951,36	-3,1321E01
951,65	-3,9167E01
951,95	-3,3639E01
952,24	-3,8534E01
952,54	-3,5981E01
952,83	-3,1944E01
953,13	-2,7272E01
953,42	-2,7498E01
953,71	-3,1589E01
954,01	-3,8902E01
954,30	-2,8668E01
954,60	-2,7860E01
954,89	-3,6738E01
955,18	-3,7244E01
955,48	-3,7748E01
955,77	-3,3729E01
956,07	-3,5770E01
956,36	-3,3485E01
956,65	-3,9912E01
956,95	-3,3241E01
957,24	-2,9597E01
957,53	-4,1523E01
957,83	-2,9315E01
958,12	-3,7097E01
958,41	-3,3655E01
958,71	-3,7281E01
959,00	-3,2473E01
959,29	-3,2096E01
959,59	-3,7769E01
959,88	-3,4287E01
960,17	-3,2119E01
960,46	-3,6488E01
960,76	-2,8920E01
961,05	-3,6671E01
961,34	-3,3415E01
961,64	-4,1057E01
961,93	-4,1430E01
962,22	-3,6270E01
962,51	-3,0423E01
962,81	-3,3999E01
963,10	-3,4361E01
963,39	-3,5213E01
963,68	-4,0707E01
963,97	-3,7786E01
964,27	-4,0545E01
964,56	-3,3128E01
964,85	-3,7778E01
965,14	-3,7435E01
965,43	-4,2888E01
965,73	-4,1664E01
966,02	-4,4747E01
966,31	-3,2803E01
966,60	-3,5881E01
966,89	-4,3458E01
967,19	-4,3187E01
967,48	-4,5396E01
967,77	-4,1640E01
968,06	-4,0353E01
968,35	-5,1200E01
968,64	-3,7506E01
968,93	-4,5820E01
969,22	-3,4812E01
969,52	-4,3989E01
969,81	-3,9863E01
970,10	-4,5827E01
970,39	-4,2469E01
970,68	-4,5379E01
970,97	-4,1378E01
971,26	-4,3226E01
971,55	-4,1062E01
971,84	-4,9695E01
972,13	-4,8691E01
972,42	-3,7510E01
972,71	-5,1556E01
973,01	-5,2669E01
973,30	-4,4886E01
973,59	-3,4509E01
973,88	-3,2211E01
974,17	-3,2716E01
974,46	-5,2684E01
974,75	-4,5035E01
975,04	-5,5218E01
975,33	-5,8774E01
975,62	-5,5856E01
975,91	-4,7301E01
976,20	-4,5225E01
976,49	-5,0289E01
976,78	-5,0233E01
977,07	-4,9274E01
977,36	-6,3305E01
977,64	-4,1703E01
977,93	-4,6221E01
978,22	-4,0300E01
978,51	-4,8694E01
978,80	-5,0662E01
979,09	-5,2962E01
979,38	-5,4025E01
979,67	-5,6068E01
979,96	-4,9762E01
980,25	-5,2438E01
980,54	-4,2903E01
980,83	-5,4494E01
981,12	-3,6176E01
981,40	-5,8170E01
981,69	-5,3163E01
981,98	-5,3244E01
982,27	-6,1988E01
982,56	-7,3262E01
982,85	-5,0971E01
983,14	-4,2811E01
983,42	-6,2760E01
983,71	-5,7131E01
984,00	-6,1935E01
984,29	-6,4939E01
984,58	-6,0171E01
984,87	-6,5803E01
985,15	-6,5931E01
985,44	-4,9906E01
985,73	-6,1671E01
986,02	-6,2907E01
986,31	-6,0004E01
986,59	-6,7154E01
986,88	-5,9122E01
987,17	-7,5367E01
987,46	-7,1949E01
987,74	-7,5468E01
988,03	-6,8355E01
988,32	-1,0923E02
988,61	-7,3974E01
988,89	-5,9609E01
989,18	-5,8772E01
989,47	-6,2638E01
989,76	-6,4775E01
990,04	-6,6114E01
990,33	-7,5230E01
990,62	-7,8019E01
990,90	-7,6062E01
991,19	-8,1627E01
991,48	-5,2458E01
991,76	-7,3052E01
992,05	-6,8236E01
992,34	-6,9434E01
992,62	-6,6273E01
992,91	-7,0543E01
993,20	-5,0129E01
993,48	-9,6852E01
993,77	-6,6273E01
994,06	-7,3514E01
994,34	-7,7023E01
994,63	-8,5062E01
994,92	-7,1450E01
995,20	-7,5660E01
995,49	-7,7257E01
995,77	-8,0523E01
996,06	-8,0293E01
996,35	-8,7125E01
996,63	-5,6729E01
996,92	-9,8184E01
997,20	-8,8512E01
997,49	-6,7383E01
997,77	-1,0796E02
998,06	-9,2633E01
998,34	-7,6343E01
998,63	-9,6925E01
998,92	-8,8317E01
999,20	-8,7858E01
999,49	-1,0289E02
999,77	-7,3983E01
1000,06	-1,0610E02
1000,34	-8,0661E01
1000,63	-9,8531E01
1000,91	-9,4160E01
1001,20	-1,0415E02
1001,48	-9,7276E01
1001,77	-1,1489E02
1002,05	-9,7380E01
1002,34	-1,0719E02
1002,62	-1,1889E02
1002,90	-8,3045E01
1003,19	-1,1210E02
1003,47	-1,0542E02
1003,76	-9,2692E01
1004,04	-1,2422E02
1004,33	-1,4271E02
1004,61	-9,4060E01
1004,89	-1,0323E02
1005,18	-9,5283E01
1005,46	-1,3378E02
1005,75	-1,2463E02
1006,03	-1,3437E02
1006,31	-1,2991E02
1006,60	-1,2231E02
1006,88	-1,1917E02
1007,17	-9,4359E01
1007,45	-1,2969E02
1007,73	-1,0393E02
1008,02	-1,3376E02
1008,30	-1,2874E02
1008,58	-1,1235E02
1008,87	-1,0803E02
1009,15	-1,2322E02
1009,43	-1,2282E02
1009,72	-1,2441E02
1010,00	-1,3866E02
1010,28	-1,3298E02
1010,57	-1,1257E02
1010,85	-1,4810E02
1011,13	-1,5732E02
1011,41	-1,4621E02
1011,70	-1,4084E02
1011,98	-1,2117E02
1012,26	-1,5528E02
1012,55	-1,1497E02
1012,83	-1,2060E02
1013,11	-1,3843E02
1013,39	-1,1929E02
1013,68	-1,5524E02
1013,96	-1,4381E02
1014,24	-1,3009E02
1014,52	-1,4195E02
1014,80	-1,3661E02
1015,09	-1,6788E02
1015,37	-1,4796E02
1015,65	-1,9992E02
1015,93	-1,8122E02
1016,21	-1,5864E02
1016,50	-1,4162E02
1016,78	-1,4958E02
1017,06	-1,4804E02
1017,34	-1,6838E02
1017,62	-1,9942E02
1017,90	-2,0751E02
1018,19	-1,2511E02
1018,47	-1,8379E02
1018,75	-1,8011E02
1019,03	-1,7737E02
1019,31	-2,0394E02
1019,59	-2,1357E02
1019,87	-1,7017E02
1020,15	-2,3534E02
1020,44	-1,9956E02
1020,72	-1,9661E02
1021,00	-1,8492E02
1021,28	-1,6814E02
1021,56	-2,2125E02
1021,84	-2,2523E02
1022,12	-2,0658E02
1022,40	-2,1425E02
1022,68	-1,8424E02
1022,96	-1,9935E02
1023,24	-2,7199E02
1023,52	-2,4479E02
1023,80	-2,4492E02
1024,08	-2,4492E02
>>>>>End Processed Spectral Data<<<<<
