SpectraSuite Datei
++++++++++++++++++++++++++++++++++++
Datum: Thu Jan 20 12:18:42 CET 2022
Benutzer: RMV
Dark-Spektrum vorhanden: Ja
Referenz-Spektrum vorhanden: Nein
Zahl der probierten Teilspektren: 1
Spektrometer: USB2+H07983
Integrationszeit (usec): 3170 (USB2+H07983)
Spektren Durchschnitt berechnet: 1 (USB2+H07983)
Boxcar Glättung: 0 (USB2+H07983)
Dunkelstromkorrektur: Nein (USB2+H07983)
Puls/Lampe aktiviert: Nein (USB2+H07983)
Correct for Detector Non-linearity: Nein (USB2+H07983)
Streulichtkorrektur: Nein (USB2+H07983)
Anzahl Pixel in verarbeitetem Spektrum: 2048
>>>>>Begin Processed Spectral Data<<<<<
339,47	-0,0000E00
339,85	-0,0000E00
340,24	-0,0000E00
340,62	-0,0000E00
341,01	-0,0000E00
341,39	-0,0000E00
341,77	-0,0000E00
342,16	-0,0000E00
342,54	-0,0000E00
342,92	-0,0000E00
343,31	-0,0000E00
343,69	-0,0000E00
344,07	-0,0000E00
344,46	-0,0000E00
344,84	-0,0000E00
345,22	-0,0000E00
345,61	-0,0000E00
345,99	-0,0000E00
346,37	-0,0000E00
346,76	-0,0000E00
347,14	-0,0000E00
347,52	-0,0000E00
347,91	-0,0000E00
348,29	-0,0000E00
348,67	-5,0603E00
349,05	-6,3982E00
349,44	-5,2485E00
349,82	-6,0757E00
350,20	-4,5926E00
350,59	-4,8572E00
350,97	-4,9216E00
351,35	-4,6726E00
351,73	-4,6422E00
352,12	-4,7439E00
352,50	-4,8574E00
352,88	-3,3791E00
353,26	-3,9267E00
353,65	-4,0821E00
354,03	-4,1426E00
354,41	-4,1015E00
354,79	-3,5392E00
355,17	-4,5725E00
355,56	-3,6798E00
355,94	-3,2821E00
356,32	-4,2422E00
356,70	-4,3486E00
357,08	-3,7783E00
357,47	-4,5167E00
357,85	-4,8244E00
358,23	-3,1717E00
358,61	-4,6123E00
358,99	-4,9186E00
359,38	-4,2559E00
359,76	-3,2104E00
360,14	-6,5831E00
360,52	-4,1783E00
360,90	-4,2467E00
361,28	-4,6893E00
361,66	-4,8256E00
362,05	-3,5112E00
362,43	-4,0651E00
362,81	-4,9185E00
363,19	-4,7865E00
363,57	-4,0929E00
363,95	-3,9656E00
364,33	-4,7134E00
364,71	-4,4365E00
365,10	-3,6380E00
365,48	-5,3383E00
365,86	-4,8139E00
366,24	-4,4292E00
366,62	-4,1497E00
367,00	-4,3609E00
367,38	-3,1962E00
367,76	-4,6590E00
368,14	-4,4821E00
368,52	-2,8319E00
368,90	-3,8737E00
369,28	-4,5692E00
369,66	-3,6451E00
370,04	-4,8164E00
370,42	-5,1391E00
370,81	-4,6088E00
371,19	-5,3242E00
371,57	-5,4620E00
371,95	-4,1081E00
372,33	-3,7830E00
372,71	-4,5489E00
373,09	-5,2574E00
373,47	-2,7914E00
373,85	-3,6390E00
374,23	-4,3722E00
374,61	-4,4026E00
374,99	-4,2054E00
375,37	-3,2458E00
375,75	-4,7751E00
376,13	-3,7960E00
376,51	-3,2098E00
376,88	-3,8254E00
377,26	-4,0313E00
377,64	-3,1973E00
378,02	-3,6026E00
378,40	-3,6427E00
378,78	-4,6065E00
379,16	-4,1163E00
379,54	-2,9575E00
379,92	-4,0021E00
380,30	-3,6408E00
380,68	-3,6010E00
381,06	-3,4916E00
381,44	-3,6517E00
381,82	-3,4370E00
382,20	-3,1740E00
382,57	-3,1884E00
382,95	-3,5205E00
383,33	-3,4606E00
383,71	-2,9334E00
384,09	-3,9458E00
384,47	-3,4055E00
384,85	-2,5762E00
385,23	-3,2360E00
385,60	-3,5251E00
385,98	-2,5618E00
386,36	-3,1545E00
386,74	-3,6727E00
387,12	-2,9383E00
387,50	-2,1336E00
387,88	-3,0773E00
388,25	-2,9992E00
388,63	-3,3632E00
389,01	-2,3951E00
389,39	-2,6976E00
389,77	-2,5870E00
390,14	-3,5675E00
390,52	-2,3902E00
390,90	-2,2925E00
391,28	-3,1990E00
391,66	-3,5204E00
392,03	-3,4726E00
392,41	-2,3943E00
392,79	-2,1519E00
393,17	-2,7814E00
393,54	-3,1165E00
393,92	-2,4040E00
394,30	-3,1898E00
394,68	-2,4751E00
395,06	-2,6947E00
395,43	-2,9683E00
395,81	-2,6328E00
396,19	-3,0408E00
396,56	-2,4943E00
396,94	-2,1952E00
397,32	-2,3427E00
397,70	-2,8751E00
398,07	-2,4129E00
398,45	-2,5701E00
398,83	-2,0234E00
399,20	-1,9806E00
399,58	-2,6909E00
399,96	-2,0616E00
400,34	-2,8868E00
400,71	-2,2459E00
401,09	-2,9346E00
401,47	-2,5030E00
401,84	-2,9097E00
402,22	-1,7963E00
402,60	-2,5433E00
402,97	-2,3960E00
403,35	-2,2923E00
403,73	-1,9060E00
404,10	-2,7184E00
404,48	-2,9777E00
404,85	-2,6118E00
405,23	-2,2360E00
405,61	-2,6977E00
405,98	-2,7450E00
406,36	-2,4854E00
406,74	-2,3918E00
407,11	-1,8394E00
407,49	-2,3331E00
407,86	-2,8309E00
408,24	-1,7086E00
408,62	-2,3709E00
408,99	-1,7964E00
409,37	-2,6012E00
409,74	-2,1568E00
410,12	-2,5208E00
410,49	-1,9590E00
410,87	-2,6331E00
411,25	-1,7957E00
411,62	-1,5540E00
412,00	-1,4584E00
412,37	-1,7669E00
412,75	-2,4216E00
413,12	-1,9516E00
413,50	-2,2077E00
413,87	-2,3751E00
414,25	-1,9478E00
414,62	-1,6568E00
415,00	-2,0848E00
415,37	-1,5620E00
415,75	-1,7821E00
416,12	-1,8785E00
416,50	-2,3101E00
416,87	-1,3213E00
417,25	-1,3445E00
417,62	-2,4025E00
418,00	-1,7069E00
418,37	-1,9781E00
418,75	-1,7316E00
419,12	-1,6720E00
419,50	-2,2642E00
419,87	-1,8404E00
420,25	-1,9883E00
420,62	-1,6209E00
420,99	-1,7144E00
421,37	-1,7761E00
421,74	-1,7528E00
422,12	-4,0301E00
422,49	-1,6560E00
422,87	-1,2773E00
423,24	-1,4465E00
423,61	-7,1443E-01
423,99	-1,0425E00
424,36	-9,5293E-01
424,74	-1,0359E00
425,11	-7,7870E-01
425,48	-1,2391E00
425,86	-1,1010E00
426,23	-1,1345E00
426,60	-9,9789E-01
426,98	-8,5009E-01
427,35	-1,0850E00
427,73	-1,0678E00
428,10	-6,8675E-01
428,47	1,2989E-01
428,85	-4,4717E-01
429,22	-4,6881E-02
429,59	3,5074E-02
429,97	-5,8284E-02
430,34	4,6471E-01
430,71	6,9464E-01
431,09	2,9998E-01
431,46	5,8691E-01
431,83	8,4803E-01
432,21	8,6528E-01
432,58	1,0627E00
432,95	1,2023E00
433,32	1,8200E00
433,70	1,9738E00
434,07	1,5779E00
434,44	1,9960E00
434,82	3,0015E00
435,19	3,2140E00
435,56	3,6672E00
435,93	4,0597E00
436,31	4,1478E00
436,68	4,1852E00
437,05	4,8722E00
437,42	4,8196E00
437,80	5,6102E00
438,17	6,4652E00
438,54	6,9081E00
438,91	7,3812E00
439,28	8,2285E00
439,66	8,6350E00
440,03	9,3715E00
440,40	9,8254E00
440,77	1,0906E01
441,14	1,1945E01
441,52	1,2663E01
441,89	1,3233E01
442,26	1,4206E01
442,63	1,4982E01
443,00	1,5742E01
443,38	1,7327E01
443,75	1,7809E01
444,12	1,9698E01
444,49	2,0935E01
444,86	2,1786E01
445,23	2,2913E01
445,60	2,3992E01
445,98	2,5689E01
446,35	2,7266E01
446,72	2,8745E01
447,09	3,1077E01
447,46	3,2685E01
447,83	3,4842E01
448,20	3,6765E01
448,57	3,9543E01
448,94	4,1587E01
449,32	4,4183E01
449,69	4,6966E01
450,06	5,1058E01
450,43	5,3328E01
450,80	5,5936E01
451,17	6,0335E01
451,54	6,3344E01
451,91	6,7368E01
452,28	7,1126E01
452,65	7,7334E01
453,02	8,0959E01
453,39	8,5961E01
453,76	9,0476E01
454,13	9,6861E01
454,50	1,0295E02
454,87	1,0773E02
455,24	1,1327E02
455,61	1,1906E02
455,98	1,2525E02
456,35	1,3003E02
456,72	1,3868E02
457,09	1,4365E02
457,46	1,5064E02
457,83	1,5779E02
458,20	1,6465E02
458,57	1,6868E02
458,94	1,7489E02
459,31	1,7863E02
459,68	1,8343E02
460,05	1,8716E02
460,42	1,8996E02
460,79	1,9295E02
461,16	1,9573E02
461,53	1,9756E02
461,90	1,9947E02
462,27	2,0045E02
462,64	2,0040E02
463,01	2,0000E02
463,38	2,0056E02
463,75	1,9818E02
464,12	1,9717E02
464,48	1,9642E02
464,85	1,9411E02
465,22	1,9295E02
465,59	1,9232E02
465,96	1,8996E02
466,33	1,8892E02
466,70	1,8471E02
467,07	1,8241E02
467,44	1,7931E02
467,80	1,7628E02
468,17	1,7325E02
468,54	1,6565E02
468,91	1,6141E02
469,28	1,5890E02
469,65	1,5313E02
470,02	1,5078E02
470,38	1,4429E02
470,75	1,4040E02
471,12	1,3513E02
471,49	1,3056E02
471,86	1,2701E02
472,22	1,2476E02
472,59	1,1801E02
472,96	1,1482E02
473,33	1,1124E02
473,70	1,0651E02
474,06	1,0383E02
474,43	1,0239E02
474,80	9,8278E01
475,17	9,5075E01
475,54	9,3679E01
475,90	9,0328E01
476,27	8,7421E01
476,64	8,6056E01
477,01	8,4597E01
477,37	8,2574E01
477,74	7,9444E01
478,11	7,5660E01
478,48	7,4300E01
478,84	7,2584E01
479,21	6,8858E01
479,58	6,9133E01
479,94	6,6193E01
480,31	6,4780E01
480,68	6,2434E01
481,05	6,0593E01
481,41	5,8234E01
481,78	5,6994E01
482,15	5,4096E01
482,51	5,2842E01
482,88	4,9886E01
483,25	4,8690E01
483,61	4,6786E01
483,98	4,4991E01
484,35	4,2187E01
484,71	4,1051E01
485,08	3,9282E01
485,45	3,7358E01
485,81	3,6245E01
486,18	3,4895E01
486,54	3,2927E01
486,91	3,2419E01
487,28	3,0512E01
487,64	2,9423E01
488,01	2,8115E01
488,38	2,6678E01
488,74	2,5493E01
489,11	2,4366E01
489,47	2,3364E01
489,84	2,2530E01
490,20	2,1292E01
490,57	2,0323E01
490,94	2,0197E01
491,30	1,9272E01
491,67	1,7979E01
492,03	1,7671E01
492,40	1,6721E01
492,76	1,6038E01
493,13	1,5413E01
493,50	1,4964E01
493,86	1,4134E01
494,23	1,3893E01
494,59	1,3340E01
494,96	1,2872E01
495,32	1,2579E01
495,69	1,2342E01
496,05	1,1754E01
496,42	1,1168E01
496,78	1,0979E01
497,15	1,0578E01
497,51	1,0268E01
497,88	9,5938E00
498,24	9,4218E00
498,61	9,0033E00
498,97	8,5604E00
499,34	8,3788E00
499,70	7,9401E00
500,06	7,9444E00
500,43	7,5103E00
500,79	7,1363E00
501,16	6,7241E00
501,52	6,6429E00
501,89	6,2414E00
502,25	6,0317E00
502,62	5,7658E00
502,98	5,7322E00
503,34	5,4317E00
503,71	5,1766E00
504,07	4,9585E00
504,44	4,7872E00
504,80	4,6109E00
505,16	4,2014E00
505,53	4,2035E00
505,89	3,8441E00
506,26	3,6772E00
506,62	3,7280E00
506,98	3,5069E00
507,35	3,3365E00
507,71	3,2351E00
508,07	2,8721E00
508,44	2,9465E00
508,80	2,7113E00
509,16	2,6692E00
509,53	2,6258E00
509,89	2,4721E00
510,25	2,2361E00
510,62	2,2649E00
510,98	2,1482E00
511,34	2,1615E00
511,71	1,8565E00
512,07	1,9173E00
512,43	1,8582E00
512,80	1,5958E00
513,16	1,7072E00
513,52	1,5477E00
513,88	1,5939E00
514,25	1,4837E00
514,61	1,3487E00
514,97	1,1598E00
515,33	1,3111E00
515,70	1,2265E00
516,06	1,0209E00
516,42	1,0461E00
516,78	1,0599E00
517,15	8,9748E-01
517,51	6,9876E-01
517,87	8,5724E-01
518,23	9,2604E-01
518,60	8,3614E-01
518,96	7,3535E-01
519,32	6,5985E-01
519,68	5,4501E-01
520,04	7,0378E-01
520,41	4,9433E-01
520,77	4,8377E-01
521,13	5,1287E-01
521,49	4,1932E-01
521,85	3,0019E-01
522,22	3,1824E-01
522,58	2,7494E-01
522,94	2,8945E-01
523,30	2,7131E-01
523,66	2,1348E-01
524,02	1,7009E-01
524,38	2,8595E-01
524,75	1,5565E-01
525,11	2,3530E-01
525,47	1,3756E-01
525,83	2,1713E-01
526,19	-1,4470E-02
526,55	1,4469E-01
526,91	2,5323E-02
527,27	1,3027E-01
527,64	1,6630E-01
528,00	1,0843E-01
528,36	2,8910E-02
528,72	-7,9501E-02
529,08	-6,8636E-02
529,44	-2,1300E-01
529,80	-2,3106E-01
530,16	-7,5817E-02
530,52	-1,7682E-01
530,88	-2,6688E-01
531,24	-3,9650E-02
531,60	-1,1534E-01
531,96	-2,1615E-01
532,32	-3,4573E-01
532,68	-1,2957E-01
533,04	-1,6547E-01
533,40	-1,6186E-01
533,77	-3,1977E-01
534,13	-2,6571E-01
534,49	-2,3687E-01
534,85	-2,7991E-01
535,21	-3,4419E-01
535,57	-2,4359E-01
535,93	-2,9700E-01
536,29	-3,6110E-01
536,65	-3,7154E-01
537,00	-2,3921E-01
537,36	-3,8523E-01
537,72	-2,9595E-01
538,08	-3,1701E-01
538,44	-2,8825E-01
538,80	-2,5956E-01
539,16	-3,2705E-01
539,52	-3,1268E-01
539,88	-2,3094E-01
540,24	-3,3743E-01
540,60	-4,3327E-01
540,96	-3,3370E-01
541,32	-3,4425E-01
541,68	-4,8975E-01
542,04	-2,4848E-01
542,40	-4,8626E-01
542,75	-4,2936E-01
543,11	-4,6111E-01
543,47	-4,0085E-01
543,83	-4,2225E-01
544,19	-4,6477E-01
544,55	-3,0161E-01
544,91	-4,1168E-01
545,27	-4,7559E-01
545,63	-3,1934E-01
545,98	-4,5797E-01
546,34	-3,4456E-01
546,70	-4,2647E-01
547,06	-3,2359E-01
547,42	-4,2689E-01
547,78	-3,2381E-01
548,13	-3,3826E-01
548,49	-4,2022E-01
548,85	-3,2067E-01
549,21	-6,4181E-01
549,57	-4,8541E-01
549,93	-4,1421E-01
550,28	-4,9314E-01
550,64	-4,9338E-01
551,00	-4,1140E-01
551,36	-5,3718E-01
551,71	-6,6299E-01
552,07	-5,5946E-01
552,43	-4,9166E-01
552,79	-5,0292E-01
553,15	-4,9975E-01
553,50	-4,4250E-01
553,86	-2,6644E-01
554,22	-5,4406E-01
554,58	-5,6248E-01
554,93	-4,0794E-01
555,29	-5,4563E-01
555,65	-4,2689E-01
556,01	-4,1642E-01
556,36	-4,7140E-01
556,72	-4,2468E-01
557,08	-5,0142E-01
557,43	-6,6944E-01
557,79	-6,0104E-01
558,15	-5,1412E-01
558,50	-4,8948E-01
558,86	-3,7658E-01
559,22	-3,9898E-01
559,58	-4,8370E-01
559,93	-5,4318E-01
560,29	-3,8230E-01
560,65	-4,7119E-01
561,00	-5,2726E-01
561,36	-5,5764E-01
561,71	-7,2513E-01
562,07	-6,7476E-01
562,43	-3,6785E-01
562,78	-4,8419E-01
563,14	-5,2266E-01
563,50	-4,5649E-01
563,85	-5,8860E-01
564,21	-6,4221E-01
564,57	-3,8782E-01
564,92	-5,1710E-01
565,28	-6,0898E-01
565,63	-5,4960E-01
565,99	-5,6581E-01
566,35	-6,2781E-01
566,70	-4,0011E-01
567,06	-6,5277E-01
567,41	-4,9323E-01
567,77	-4,3686E-01
568,12	-5,9526E-01
568,48	-5,9233E-01
568,83	-4,3148E-01
569,19	-5,6744E-01
569,55	-5,1827E-01
569,90	-4,5353E-01
570,26	-4,6971E-01
570,61	-7,6262E-01
570,97	-7,3274E-01
571,32	-6,5231E-01
571,68	-6,1060E-01
572,03	-6,3131E-01
572,39	-6,0898E-01
572,74	-7,2049E-01
573,10	-7,1397E-01
573,45	-6,0077E-01
573,81	-5,1069E-01
574,16	-6,8632E-01
574,52	-6,1985E-01
574,87	-5,6535E-01
575,23	-5,0669E-01
575,58	-4,7157E-01
575,94	-5,7255E-01
576,29	-6,0176E-01
576,64	-6,9931E-01
577,00	-7,4485E-01
577,35	-7,4651E-01
577,71	-5,5807E-01
578,06	-6,3615E-01
578,42	-6,0516E-01
578,77	-7,6920E-01
579,12	-4,6892E-01
579,48	-5,3933E-01
579,83	-5,1583E-01
580,19	-5,9470E-01
580,54	-6,0830E-01
580,89	-6,4676E-01
581,25	-7,1365E-01
581,60	-4,2568E-01
581,96	-6,5834E-01
582,31	-7,8792E-01
582,66	-5,9818E-01
583,02	-6,3257E-01
583,37	-6,3363E-01
583,72	-6,5605E-01
584,08	-7,1167E-01
584,43	-5,8712E-01
584,78	-6,2172E-01
585,14	-7,9138E-01
585,49	-6,6210E-01
585,84	-6,8465E-01
586,20	-6,7772E-01
586,55	-5,0944E-01
586,90	-5,4020E-01
587,26	-7,2451E-01
587,61	-4,8685E-01
587,96	-5,8208E-01
588,32	-5,5747E-01
588,67	-5,4999E-01
589,02	-6,2000E-01
589,37	-7,1606E-01
589,73	-6,7838E-01
590,08	-7,0567E-01
590,43	-5,9430E-01
590,78	-6,7369E-01
591,14	-5,6167E-01
591,49	-8,1086E-01
591,84	-5,0230E-01
592,19	-7,6586E-01
592,55	-6,0500E-01
592,90	-7,8133E-01
593,25	-7,3444E-01
593,60	-7,6637E-01
593,96	-7,0562E-01
594,31	-6,0500E-01
594,66	-7,5182E-01
595,01	-6,5118E-01
595,36	-7,5848E-01
595,72	-6,1289E-01
596,07	-6,1789E-01
596,42	-8,0559E-01
596,77	-7,4449E-01
597,12	-7,7688E-01
597,47	-6,7082E-01
597,83	-5,1502E-01
598,18	-9,0984E-01
598,53	-6,1463E-01
598,88	-7,1866E-01
599,23	-6,0268E-01
599,58	-6,5292E-01
599,93	-7,8448E-01
600,29	-7,5385E-01
600,64	-6,3717E-01
600,99	-6,4667E-01
601,34	-6,8808E-01
601,69	-7,6554E-01
602,04	-7,5811E-01
602,39	-6,9074E-01
602,74	-8,1022E-01
603,09	-6,6091E-01
603,44	-6,1619E-01
603,80	-6,7185E-01
604,15	-6,6354E-01
604,50	-5,9573E-01
604,85	-6,8401E-01
605,20	-5,7037E-01
605,55	-5,5293E-01
605,90	-8,0712E-01
606,25	-6,8846E-01
606,60	-6,3401E-01
606,95	-6,7675E-01
607,30	-8,4020E-01
607,65	-5,9064E-01
608,00	-7,5937E-01
608,35	-9,5229E-01
608,70	-5,8910E-01
609,05	-8,2881E-01
609,40	-7,4615E-01
609,75	-7,3346E-01
610,10	-7,2585E-01
610,45	-7,0833E-01
610,80	-7,6180E-01
611,15	-7,7731E-01
611,50	-5,7485E-01
611,85	-7,2848E-01
612,20	-7,0138E-01
612,55	-8,9430E-01
612,90	-8,0036E-01
613,25	-9,4611E-01
613,60	-7,2687E-01
613,95	-7,1896E-01
614,30	-6,3863E-01
614,64	-8,3911E-01
614,99	-9,0460E-01
615,34	-9,1179E-01
615,69	-7,8680E-01
616,04	-6,9599E-01
616,39	-8,1568E-01
616,74	-7,9312E-01
617,09	-7,4580E-01
617,44	-7,5757E-01
617,79	-8,5343E-01
618,13	-7,9586E-01
618,48	-6,2340E-01
618,83	-8,8049E-01
619,18	-8,3241E-01
619,53	-6,8888E-01
619,88	-6,7537E-01
620,23	-9,7042E-01
620,57	-7,7018E-01
620,92	-7,3152E-01
621,27	-8,6118E-01
621,62	-7,3059E-01
621,97	-8,7066E-01
622,32	-9,1439E-01
622,66	-8,7012E-01
623,01	-8,3640E-01
623,36	-1,0978E00
623,71	-6,1267E-01
624,06	-6,7149E-01
624,40	-8,0394E-01
624,75	-8,2192E-01
625,10	-7,9254E-01
625,45	-8,8971E-01
625,80	-8,1789E-01
626,14	-7,3011E-01
626,49	-7,6414E-01
626,84	-8,3541E-01
627,19	-7,9507E-01
627,53	-8,6686E-01
627,88	-8,3707E-01
628,23	-9,1989E-01
628,57	-6,5288E-01
628,92	-7,7891E-01
629,27	-9,2726E-01
629,62	-9,1400E-01
629,96	-7,9057E-01
630,31	-7,2177E-01
630,66	-7,3993E-01
631,00	-9,5613E-01
631,35	-9,1995E-01
631,70	-7,3489E-01
632,05	-7,7570E-01
632,39	-8,1129E-01
632,74	-1,1478E00
633,09	-9,8925E-01
633,43	-7,0053E-01
633,78	-9,3863E-01
634,12	-1,0368E00
634,47	-1,1589E00
634,82	-9,4102E-01
635,16	-8,3563E-01
635,51	-8,1489E-01
635,86	-1,0116E00
636,20	-9,2243E-01
636,55	-1,0513E00
636,90	-8,8115E-01
637,24	-8,0869E-01
637,59	-8,0506E-01
637,93	-9,8143E-01
638,28	-7,9746E-01
638,63	-7,8211E-01
638,97	-1,0769E00
639,32	-8,9214E-01
639,66	-1,0710E00
640,01	-8,4974E-01
640,35	-8,9376E-01
640,70	-8,6038E-01
641,04	-8,9807E-01
641,39	-8,2909E-01
641,74	-1,1121E00
642,08	-1,1212E00
642,43	-8,5964E-01
642,77	-9,7627E-01
643,12	-1,0209E00
643,46	-1,0113E00
643,81	-1,0560E00
644,15	-8,0295E-01
644,50	-1,0794E00
644,84	-9,1682E-01
645,19	-1,2319E00
645,53	-1,1615E00
645,88	-9,1182E-01
646,22	-8,7677E-01
646,57	-9,5338E-01
646,91	-1,0861E00
647,26	-1,1565E00
647,60	-7,5444E-01
647,94	-1,0251E00
648,29	-1,0590E00
648,63	-7,2869E-01
648,98	-1,0512E00
649,32	-1,1674E00
649,67	-9,8683E-01
650,01	-9,4480E-01
650,36	-1,1250E00
650,70	-1,0770E00
651,04	-9,5875E-01
651,39	-6,8550E-01
651,73	-9,3123E-01
652,08	-8,7569E-01
652,42	-1,0261E00
652,76	-1,0871E00
653,11	-1,1547E00
653,45	-1,2159E00
653,79	-1,0040E00
654,14	-1,1763E00
654,48	-1,1132E00
654,83	-9,3862E-01
655,17	-1,0460E00
655,51	-1,0154E00
655,86	-9,9790E-01
656,20	-1,4508E00
656,54	-8,0331E-01
656,89	-1,1446E00
657,23	-1,0139E00
657,57	-1,0164E00
657,91	-1,2199E00
658,26	-1,0415E00
658,60	-1,2258E00
658,94	-1,0127E00
659,29	-1,1100E00
659,63	-1,0852E00
659,97	-1,0203E00
660,32	-1,0156E00
660,66	-9,9714E-01
661,00	-1,1229E00
661,34	-1,0295E00
661,69	-9,4248E-01
662,03	-9,7262E-01
662,37	-1,1477E00
662,71	-1,2689E00
663,06	-1,3688E00
663,40	-1,1078E00
663,74	-1,3406E00
664,08	-1,3726E00
664,42	-1,1872E00
664,77	-1,0351E00
665,11	-1,2564E00
665,45	-1,1680E00
665,79	-1,2419E00
666,13	-1,2520E00
666,48	-1,1339E00
666,82	-1,0941E00
667,16	-1,1761E00
667,50	-1,0210E00
667,84	-1,4850E00
668,18	-1,1704E00
668,53	-1,1372E00
668,87	-9,5874E-01
669,21	-1,0706E00
669,55	-1,1754E00
669,89	-1,3257E00
670,23	-9,9151E-01
670,57	-9,3566E-01
670,92	-1,4624E00
671,26	-1,0890E00
671,60	-1,3667E00
671,94	-1,0430E00
672,28	-1,4275E00
672,62	-1,0944E00
672,96	-1,2698E00
673,30	-1,1911E00
673,64	-1,0277E00
673,98	-1,3868E00
674,33	-1,0715E00
674,67	-1,3872E00
675,01	-1,1774E00
675,35	-1,0890E00
675,69	-1,1770E00
676,03	-1,0876E00
676,37	-1,1604E00
676,71	-1,1563E00
677,05	-1,3542E00
677,39	-1,1087E00
677,73	-1,5664E00
678,07	-1,2336E00
678,41	-1,1741E00
678,75	-1,3429E00
679,09	-1,1407E00
679,43	-1,2393E00
679,77	-1,3072E00
680,11	-1,1351E00
680,45	-1,1466E00
680,79	-1,3510E00
681,13	-1,2097E00
681,47	-1,3185E00
681,81	-1,0787E00
682,15	-9,9248E-01
682,49	-1,4615E00
682,83	-1,4331E00
683,17	-1,4868E00
683,51	-1,3507E00
683,84	-1,3794E00
684,18	-1,2180E00
684,52	-9,7240E-01
684,86	-1,5589E00
685,20	-1,4966E00
685,54	-1,0315E00
685,88	-1,2196E00
686,22	-1,4591E00
686,56	-1,4044E00
686,90	-1,1714E00
687,24	-1,3960E00
687,57	-1,3493E00
687,91	-1,2161E00
688,25	-1,2113E00
688,59	-1,0513E00
688,93	-1,4952E00
689,27	-1,5342E00
689,61	-1,5913E00
689,94	-1,1685E00
690,28	-1,3120E00
690,62	-1,1836E00
690,96	-1,0381E00
691,30	-1,6231E00
691,64	-1,5840E00
691,97	-1,0559E00
692,31	-1,4326E00
692,65	-1,2403E00
692,99	-1,3157E00
693,33	-1,3188E00
693,66	-1,5657E00
694,00	-1,4073E00
694,34	-1,7374E00
694,68	-1,4331E00
695,01	-1,6009E00
695,35	-1,5414E00
695,69	-1,5456E00
696,03	-1,1277E00
696,36	-1,3973E00
696,70	-1,1615E00
697,04	-1,7570E00
697,38	-1,5486E00
697,71	-1,5439E00
698,05	-1,3987E00
698,39	-1,5248E00
698,72	-1,4447E00
699,06	-1,2792E00
699,40	-1,6980E00
699,74	-1,5143E00
700,07	-1,2530E00
700,41	-1,5138E00
700,75	-1,4418E00
701,08	-1,4652E00
701,42	-1,5655E00
701,76	-1,5321E00
702,09	-1,3633E00
702,43	-1,7167E00
702,77	-1,3721E00
703,10	-1,1712E00
703,44	-1,4880E00
703,77	-1,6594E00
704,11	-1,4280E00
704,45	-1,5310E00
704,78	-1,0896E00
705,12	-1,6692E00
705,46	-1,7829E00
705,79	-1,8670E00
706,13	-1,5015E00
706,46	-1,8965E00
706,80	-2,0328E00
707,14	-1,7955E00
707,47	-1,4364E00
707,81	-1,4907E00
708,14	-1,5964E00
708,48	-1,8458E00
708,81	-1,6260E00
709,15	-1,7638E00
709,48	-1,4399E00
709,82	-1,6090E00
710,16	-1,0137E00
710,49	-1,8984E00
710,83	-1,5606E00
711,16	-1,7950E00
711,50	-1,9883E00
711,83	-1,6478E00
712,17	-1,4206E00
712,50	-1,4882E00
712,84	-1,7571E00
713,17	-1,7300E00
713,51	-1,8317E00
713,84	-1,5704E00
714,18	-1,7891E00
714,51	-2,3645E00
714,85	-1,7460E00
715,18	-1,5030E00
715,51	-1,8335E00
715,85	-1,7415E00
716,18	-1,7032E00
716,52	-1,7207E00
716,85	-1,6826E00
717,19	-2,2727E00
717,52	-1,8264E00
717,86	-1,9890E00
718,19	-1,8847E00
718,52	-1,7240E00
718,86	-1,5503E00
719,19	-1,5554E00
719,53	-1,6855E00
719,86	-1,7946E00
720,19	-1,8466E00
720,53	-2,1394E00
720,86	-2,0548E00
721,19	-1,5783E00
721,53	-1,4680E00
721,86	-1,5886E00
722,20	-1,5586E00
722,53	-1,9257E00
722,86	-1,9436E00
723,20	-2,0898E00
723,53	-2,2709E00
723,86	-2,2058E00
724,20	-2,0573E00
724,53	-1,8376E00
724,86	-1,6876E00
725,19	-1,4049E00
725,53	-1,6827E00
725,86	-1,6861E00
726,19	-2,0853E00
726,53	-2,0896E00
726,86	-1,9625E00
727,19	-1,4005E00
727,53	-1,9962E00
727,86	-2,5223E00
728,19	-1,4459E00
728,52	-2,0701E00
728,86	-1,8557E00
729,19	-1,8597E00
729,52	-2,1093E00
729,85	-1,9658E00
730,19	-1,8720E00
730,52	-1,6411E00
730,85	-1,7674E00
731,18	-2,0190E00
731,51	-1,6760E00
731,85	-1,7175E00
732,18	-1,8832E00
732,51	-1,4251E00
732,84	-2,0800E00
733,17	-1,8588E00
733,51	-1,9137E00
733,84	-1,9687E00
734,17	-1,7208E00
734,50	-2,2585E00
734,83	-2,0481E00
735,16	-1,9251E00
735,50	-2,4160E00
735,83	-2,1276E00
736,16	-2,2738E00
736,49	-1,7252E00
736,82	-1,7551E00
737,15	-2,2900E00
737,48	-1,8805E00
737,81	-1,8850E00
738,15	-1,9814E00
738,48	-2,4050E00
738,81	-2,2408E00
739,14	-2,0482E00
739,47	-1,8163E00
739,80	-2,0317E00
740,13	-2,3692E00
740,46	-1,9509E00
740,79	-2,0226E00
741,12	-2,3623E00
741,45	-1,8872E00
741,78	-2,2942E00
742,11	-2,2867E00
742,44	-1,9288E00
742,78	-1,9622E00
743,11	-1,9680E00
743,44	-2,1636E00
743,77	-2,3182E00
744,10	-2,1335E00
744,43	-2,1667E00
744,76	-2,3645E00
745,09	-2,5350E00
745,42	-2,2657E00
745,75	-1,9115E00
746,08	-1,9867E00
746,41	-2,3813E00
746,74	-2,4434E00
747,07	-2,1857E00
747,40	-2,2066E00
747,72	-2,0852E00
748,05	-1,7952E00
748,38	-2,2115E00
748,71	-2,5609E00
749,04	-1,9550E00
749,37	-2,6048E00
749,70	-2,0525E00
750,03	-1,9148E00
750,36	-2,7149E00
750,69	-2,2882E00
751,02	-2,2520E00
751,35	-2,6382E00
751,68	-2,6461E00
752,00	-2,5664E00
752,33	-2,4122E00
752,66	-2,3606E00
752,99	-2,7974E00
753,32	-2,6878E00
753,65	-2,5623E00
753,98	-2,2265E00
754,31	-2,5336E00
754,63	-2,9333E00
754,96	-2,7311E00
755,29	-2,2401E00
755,62	-2,8546E00
755,95	-2,4522E00
756,28	-2,4443E00
756,60	-2,3752E00
756,93	-2,3822E00
757,26	-2,8212E00
757,59	-1,6241E00
757,92	-2,5903E00
758,24	-2,5354E00
758,57	-2,3260E00
758,90	-2,1299E00
759,23	-3,3930E00
759,56	-2,2852E00
759,88	-3,3212E00
760,21	-2,3958E00
760,54	-3,2302E00
760,87	-1,6126E00
761,19	-3,3157E00
761,52	-2,8288E00
761,85	-2,5641E00
762,18	-2,5070E00
762,50	-2,4012E00
762,83	-2,2626E00
763,16	-1,8612E00
763,49	-3,0788E00
763,81	-2,6448E00
764,14	-2,3082E00
764,47	-2,1335E00
764,79	-3,0526E00
765,12	-2,5464E00
765,45	-2,6706E00
765,77	-2,4447E00
766,10	-2,8216E00
766,43	-2,2581E00
766,75	-2,8912E00
767,08	-2,1716E00
767,41	-2,3315E00
767,73	-2,9196E00
768,06	-2,7740E00
768,39	-2,5958E00
768,71	-2,5524E00
769,04	-1,8339E00
769,36	-2,8978E00
769,69	-2,7695E00
770,02	-2,3422E00
770,34	-2,9452E00
770,67	-2,7794E00
770,99	-2,7903E00
771,32	-2,9763E00
771,65	-2,8453E00
771,97	-2,9434E00
772,30	-3,6881E00
772,62	-2,8035E00
772,95	-3,2112E00
773,27	-2,1715E00
773,60	-3,1059E00
773,93	-3,2825E00
774,25	-2,6711E00
774,58	-2,6985E00
774,90	-3,0965E00
775,23	-2,4787E00
775,55	-3,3240E00
775,88	-3,8777E00
776,20	-3,2010E00
776,53	-3,5536E00
776,85	-3,0606E00
777,18	-3,3768E00
777,50	-3,8096E00
777,83	-3,2528E00
778,15	-2,9030E00
778,48	-3,1663E00
778,80	-2,9296E00
779,13	-3,2540E00
779,45	-3,1711E00
779,78	-2,4173E00
780,10	-2,7412E00
780,42	-3,9583E00
780,75	-3,3764E00
781,07	-3,3882E00
781,40	-2,7782E00
781,72	-2,8258E00
782,05	-2,7924E00
782,37	-1,8121E00
782,69	-3,9524E00
783,02	-3,2899E00
783,34	-2,3441E00
783,67	-3,1969E00
783,99	-3,0162E00
784,31	-3,1582E00
784,64	-2,6126E00
784,96	-3,4032E00
785,28	-3,3820E00
785,61	-2,7325E00
785,93	-3,9429E00
786,25	-3,0914E00
786,58	-3,2309E00
786,90	-3,1265E00
787,22	-3,2842E00
787,55	-3,0778E00
787,87	-3,9578E00
788,19	-2,8872E00
788,52	-2,9414E00
788,84	-2,4370E00
789,16	-3,4301E00
789,49	-2,0105E00
789,81	-3,3574E00
790,13	-3,4906E00
790,46	-3,2273E00
790,78	-2,7669E00
791,10	-3,2374E00
791,42	-2,7978E00
791,75	-3,2676E00
792,07	-3,9535E00
792,39	-2,9079E00
792,71	-3,1988E00
793,04	-3,9607E00
793,36	-2,9791E00
793,68	-3,8959E00
794,00	-3,0919E00
794,32	-2,2888E00
794,65	-3,4809E00
794,97	-2,8563E00
795,29	-3,6962E00
795,61	-3,4227E00
795,93	-3,1480E00
796,26	-3,3255E00
796,58	-2,8978E00
796,90	-2,9000E00
797,22	-3,6885E00
797,54	-3,1424E00
797,87	-2,7134E00
798,19	-3,0123E00
798,51	-3,6453E00
798,83	-3,7903E00
799,15	-3,4794E00
799,47	-3,3470E00
799,79	-3,1355E00
800,12	-4,1330E00
800,44	-2,7275E00
800,76	-3,5506E00
801,08	-3,0981E00
801,40	-3,3055E00
801,72	-3,7146E00
802,04	-2,9798E00
802,36	-2,9679E00
802,68	-3,5031E00
803,00	-3,9989E00
803,32	-3,4804E00
803,65	-3,2053E00
803,97	-2,8250E00
804,29	-3,1411E00
804,61	-4,1804E00
804,93	-3,6963E00
805,25	-3,5831E00
805,57	-3,2620E00
805,89	-3,1454E00
806,21	-3,2378E00
806,53	-3,1253E00
806,85	-3,3684E00
807,17	-3,1686E00
807,49	-2,2265E00
807,81	-2,7032E00
808,13	-3,0536E00
808,45	-3,6441E00
808,77	-3,1859E00
809,09	-3,8024E00
809,41	-2,9714E00
809,73	-3,2672E00
810,05	-3,4309E00
810,37	-3,0711E00
810,69	-3,7877E00
811,01	-2,5865E00
811,33	-4,1040E00
811,64	-3,5649E00
811,96	-4,5615E00
812,28	-3,2318E00
812,60	-2,8615E00
812,92	-3,2574E00
813,24	-3,4285E00
813,56	-4,1943E00
813,88	-3,6156E00
814,20	-4,3192E00
814,52	-3,0663E00
814,83	-3,7282E00
815,15	-4,4171E00
815,47	-2,8947E00
815,79	-4,0050E00
816,11	-3,0577E00
816,43	-3,9672E00
816,75	-4,1487E00
817,06	-3,7381E00
817,38	-3,6331E00
817,70	-3,4550E00
818,02	-3,8559E00
818,34	-3,1937E00
818,66	-3,5231E00
818,97	-3,9289E00
819,29	-4,6336E00
819,61	-4,4543E00
819,93	-3,5575E00
820,25	-3,3981E00
820,56	-3,5607E00
820,88	-4,8232E00
821,20	-4,2686E00
821,52	-4,2855E00
821,84	-3,4167E00
822,15	-4,5230E00
822,47	-4,3610E00
822,79	-4,8399E00
823,11	-3,7785E00
823,42	-4,9310E00
823,74	-4,4825E00
824,06	-5,4360E00
824,37	-3,4476E00
824,69	-4,2725E00
825,01	-4,9191E00
825,33	-4,0934E00
825,64	-5,1688E00
825,96	-4,2571E00
826,28	-4,4305E00
826,59	-5,8141E00
826,91	-5,3224E00
827,23	-3,8589E00
827,54	-5,5234E00
827,86	-4,2666E00
828,18	-4,6086E00
828,49	-5,0085E00
828,81	-4,6674E00
829,13	-4,4614E00
829,44	-4,7820E00
829,76	-4,6069E00
830,08	-4,4010E00
830,39	-5,3119E00
830,71	-4,1513E00
831,02	-4,5905E00
831,34	-4,3807E00
831,66	-4,4245E00
831,97	-4,3003E00
832,29	-4,8900E00
832,60	-4,1062E00
832,92	-3,4014E00
833,23	-3,7029E00
833,55	-5,1686E00
833,87	-4,5471E00
834,18	-5,4731E00
834,50	-4,6979E00
834,81	-4,7749E00
835,13	-3,6386E00
835,44	-5,0741E00
835,76	-4,6442E00
836,07	-4,9583E00
836,39	-4,7944E00
836,70	-4,9005E00
837,02	-5,3979E00
837,33	-4,5403E00
837,65	-4,6780E00
837,96	-4,0248E00
838,28	-5,9058E00
838,59	-5,0982E00
838,91	-5,5474E00
839,22	-6,2437E00
839,54	-5,3007E00
839,85	-3,8854E00
840,17	-4,9240E00
840,48	-4,2794E00
840,80	-4,5673E00
841,11	-5,6120E00
841,43	-5,4323E00
841,74	-4,1185E00
842,05	-6,0143E00
842,37	-4,1662E00
842,68	-5,5078E00
843,00	-4,5110E00
843,31	-4,9426E00
843,62	-3,9375E00
843,94	-4,5360E00
844,25	-5,1381E00
844,57	-5,9715E00
844,88	-5,2854E00
845,19	-4,3291E00
845,51	-6,7910E00
845,82	-5,7599E00
846,13	-5,2513E00
846,45	-6,4404E00
846,76	-6,1290E00
847,07	-6,4553E00
847,39	-5,3315E00
847,70	-5,3182E00
848,01	-4,1853E00
848,33	-7,0357E00
848,64	-5,4850E00
848,95	-4,1969E00
849,27	-5,6641E00
849,58	-7,0050E00
849,89	-4,7355E00
850,21	-5,9079E00
850,52	-7,4747E00
850,83	-5,8462E00
851,14	-6,1151E00
851,46	-6,2765E00
851,77	-6,2648E00
852,08	-5,7520E00
852,39	-6,4228E00
852,71	-6,2665E00
853,02	-5,6019E00
853,33	-5,6894E00
853,64	-5,9262E00
853,96	-5,9474E00
854,27	-4,3590E00
854,58	-4,9276E00
854,89	-6,8262E00
855,20	-5,8139E00
855,52	-6,3533E00
855,83	-5,2174E00
856,14	-5,9477E00
856,45	-5,4447E00
856,76	-6,9369E00
857,07	-5,7913E00
857,39	-6,6110E00
857,70	-5,8690E00
858,01	-6,2328E00
858,32	-6,9093E00
858,63	-5,1240E00
858,94	-8,0426E00
859,25	-7,4945E00
859,57	-6,6279E00
859,88	-5,2850E00
860,19	-7,4647E00
860,50	-7,0620E00
860,81	-6,0601E00
861,12	-7,9145E00
861,43	-5,4713E00
861,74	-6,4948E00
862,05	-6,7620E00
862,36	-5,4971E00
862,67	-6,4531E00
862,99	-7,0443E00
863,30	-7,1936E00
863,61	-6,6107E00
863,92	-6,9250E00
864,23	-7,0775E00
864,54	-5,9050E00
864,85	-6,2637E00
865,16	-6,7508E00
865,47	-5,6842E00
865,78	-8,1607E00
866,09	-6,6226E00
866,40	-7,3786E00
866,71	-6,7658E00
867,02	-6,7536E00
867,33	-7,3879E00
867,64	-5,4653E00
867,95	-4,4431E00
868,26	-5,6899E00
868,57	-5,8492E00
868,88	-6,8497E00
869,19	-6,4393E00
869,50	-6,5568E00
869,81	-8,6507E00
870,12	-7,3901E00
870,42	-7,3796E00
870,73	-6,7334E00
871,04	-6,7255E00
871,35	-7,2644E00
871,66	-7,5297E00
871,97	-7,7553E00
872,28	-8,4923E00
872,59	-8,4452E00
872,90	-1,1658E01
873,21	-5,3629E00
873,52	-8,7772E00
873,82	-7,6258E00
874,13	-7,0920E00
874,44	-6,5953E00
874,75	-7,9957E00
875,06	-8,8268E00
875,37	-8,3782E00
875,68	-6,2956E00
875,98	-7,9741E00
876,29	-5,3570E00
876,60	-9,0076E00
876,91	-6,9821E00
877,22	-7,3753E00
877,52	-8,7401E00
877,83	-8,9907E00
878,14	-6,9242E00
878,45	-8,9900E00
878,76	-9,0925E00
879,06	-7,8805E00
879,37	-1,0085E01
879,68	-8,3916E00
879,99	-8,5977E00
880,30	-8,1047E00
880,60	-1,0522E01
880,91	-9,3797E00
881,22	-8,1231E00
881,53	-8,2710E00
881,83	-6,8222E00
882,14	-1,0282E01
882,45	-9,4420E00
882,75	-8,7015E00
883,06	-9,4116E00
883,37	-8,9965E00
883,68	-8,0205E00
883,98	-9,5824E00
884,29	-9,2231E00
884,60	-9,7678E00
884,90	-1,0717E01
885,21	-1,0060E01
885,52	-9,1084E00
885,82	-9,3587E00
886,13	-8,0589E00
886,44	-8,4239E00
886,74	-9,3173E00
887,05	-1,0914E01
887,36	-1,0114E01
887,66	-9,6639E00
887,97	-8,7447E00
888,27	-9,2338E00
888,58	-1,0194E01
888,89	-9,6800E00
889,19	-7,1595E00
889,50	-8,7053E00
889,80	-9,0162E00
890,11	-8,5570E00
890,42	-1,2256E01
890,72	-1,0848E01
891,03	-1,0030E01
891,33	-9,6262E00
891,64	-1,0476E01
891,94	-7,8527E00
892,25	-1,0085E01
892,56	-8,2883E00
892,86	-7,9997E00
893,17	-1,0361E01
893,47	-1,0374E01
893,78	-8,0897E00
894,08	-1,1354E01
894,39	-1,0941E01
894,69	-8,1648E00
895,00	-1,0230E01
895,30	-9,0854E00
895,61	-9,6374E00
895,91	-1,2014E01
896,22	-1,1349E01
896,52	-1,1355E01
896,83	-8,6268E00
897,13	-9,5416E00
897,43	-9,0615E00
897,74	-9,3723E00
898,04	-9,0731E00
898,35	-8,1017E00
898,65	-1,0604E01
898,96	-9,5697E00
899,26	-1,0490E01
899,57	-9,3394E00
899,87	-1,2826E01
900,17	-8,4315E00
900,48	-1,0516E01
900,78	-9,4193E00
901,09	-1,1504E01
901,39	-9,3728E00
901,69	-9,4396E00
902,00	-1,0059E01
902,30	-1,0995E01
902,60	-1,3407E01
902,91	-1,1520E01
903,21	-7,2814E00
903,51	-9,4597E00
903,82	-9,2335E00
904,12	-8,2649E00
904,42	-9,6593E00
904,73	-1,0184E01
905,03	-1,0525E01
905,33	-9,6140E00
905,64	-9,0706E00
905,94	-1,0797E01
906,24	-1,0505E01
906,55	-8,5056E00
906,85	-8,7196E00
907,15	-8,2307E00
907,45	-1,0490E01
907,76	-1,1730E01
908,06	-9,6368E00
908,36	-1,0374E01
908,66	-1,2545E01
908,97	-1,0894E01
909,27	-9,6922E00
909,57	-9,9809E00
909,87	-9,6755E00
910,18	-1,0630E01
910,48	-1,2576E01
910,78	-9,8489E00
911,08	-1,1809E01
911,39	-1,1591E01
911,69	-9,9606E00
911,99	-1,1677E01
912,29	-1,2072E01
912,59	-1,2535E01
912,89	-1,3140E01
913,20	-1,0337E01
913,50	-1,3691E01
913,80	-1,1550E01
914,10	-1,2863E01
914,40	-1,2930E01
914,70	-1,2368E01
915,01	-1,4421E01
915,31	-1,2367E01
915,61	-1,2147E01
915,91	-1,3152E01
916,21	-1,2439E01
916,51	-9,3119E00
916,81	-1,2659E01
917,11	-1,3250E01
917,41	-1,2657E01
917,72	-1,2369E01
918,02	-1,2888E01
918,32	-1,3107E01
918,62	-1,1894E01
918,92	-1,1048E01
919,22	-1,0803E01
919,52	-1,4100E01
919,82	-1,4023E01
920,12	-1,0522E01
920,42	-1,1845E01
920,72	-1,2081E01
921,02	-1,3506E01
921,32	-1,2482E01
921,62	-1,2251E01
921,92	-1,5096E01
922,22	-1,3738E01
922,52	-1,2271E01
922,82	-1,3523E01
923,12	-1,3541E01
923,42	-1,5563E01
923,72	-1,2705E01
924,02	-1,5513E01
924,32	-1,5192E01
924,62	-1,3055E01
924,92	-1,6374E01
925,22	-1,4305E01
925,52	-1,2911E01
925,82	-1,3997E01
926,12	-1,3748E01
926,42	-1,5581E01
926,72	-1,2977E01
927,02	-1,6862E01
927,31	-1,8775E01
927,61	-1,3966E01
927,91	-1,5296E01
928,21	-1,8173E01
928,51	-1,8104E01
928,81	-1,2735E01
929,11	-1,7008E01
929,41	-1,4589E01
929,71	-1,5394E01
930,00	-1,8215E01
930,30	-1,5952E01
930,60	-1,4362E01
930,90	-1,7443E01
931,20	-2,0698E01
931,50	-1,4458E01
931,79	-1,7134E01
932,09	-1,6049E01
932,39	-1,8265E01
932,69	-1,3251E01
932,99	-1,8005E01
933,29	-1,6870E01
933,58	-1,9432E01
933,88	-1,8422E01
934,18	-1,5652E01
934,48	-2,1201E01
934,77	-1,6728E01
935,07	-1,9923E01
935,37	-2,2594E01
935,67	-1,9966E01
935,97	-1,9263E01
936,26	-2,2831E01
936,56	-2,1632E01
936,86	-2,0666E01
937,15	-2,0988E01
937,45	-2,0394E01
937,75	-1,7599E01
938,05	-2,1253E01
938,34	-2,0805E01
938,64	-2,0752E01
938,94	-2,0838E01
939,23	-2,1081E01
939,53	-2,2829E01
939,83	-2,0316E01
940,12	-2,8592E01
940,42	-3,3648E01
940,72	-2,6385E01
941,01	-2,5026E01
941,31	-2,2592E01
941,61	-3,0013E01
941,90	-2,1205E01
942,20	-2,9377E01
942,50	-3,2700E01
942,79	-2,8774E01
943,09	-2,9148E01
943,38	-2,4627E01
943,68	-3,2700E01
943,98	-3,3273E01
944,27	-3,1110E01
944,57	-2,7681E01
944,86	-2,9716E01
945,16	-3,6541E01
945,46	-3,1346E01
945,75	-3,2739E01
946,05	-3,3956E01
946,34	-3,4951E01
946,64	-3,4498E01
946,93	-2,8859E01
947,23	-3,5778E01
947,52	-3,4636E01
947,82	-3,3911E01
948,12	-3,3189E01
948,41	-3,1219E01
948,71	-2,8148E01
949,00	-3,0561E01
949,30	-3,9104E01
949,59	-4,1696E01
949,89	-3,2635E01
950,18	-4,0141E01
950,48	-3,0403E01
950,77	-3,6394E01
951,06	-2,6634E01
951,36	-3,5795E01
951,65	-3,0227E01
951,95	-3,6619E01
952,24	-3,8108E01
952,54	-4,1516E01
952,83	-3,6629E01
953,13	-2,6846E01
953,42	-3,2827E01
953,71	-2,8387E01
954,01	-3,0566E01
954,30	-2,9952E01
954,60	-3,4075E01
954,89	-3,8242E01
955,18	-3,6598E01
955,48	-3,8395E01
955,77	-3,4810E01
956,07	-3,5770E01
956,36	-3,3050E01
956,65	-3,4677E01
956,95	-3,3678E01
957,24	-2,7404E01
957,53	-3,2735E01
957,83	-3,5486E01
958,12	-3,9526E01
958,41	-3,6090E01
958,71	-3,3286E01
959,00	-2,3576E01
959,29	-3,1427E01
959,59	-3,8886E01
959,88	-4,5267E01
960,17	-3,7735E01
960,46	-4,3020E01
960,76	-3,1406E01
961,05	-3,6898E01
961,34	-3,5688E01
961,64	-4,2654E01
961,93	-4,3947E01
962,22	-3,7877E01
962,51	-2,9731E01
962,81	-3,5850E01
963,10	-3,8540E01
963,39	-3,7778E01
963,68	-3,1115E01
963,97	-3,7082E01
964,27	-4,0545E01
964,56	-3,2891E01
964,85	-4,0391E01
965,14	-3,9104E01
965,43	-3,5700E01
965,73	-4,5036E01
966,02	-4,0151E01
966,31	-3,6934E01
966,60	-3,5881E01
966,89	-3,8302E01
967,19	-4,5161E01
967,48	-4,5892E01
967,77	-4,0643E01
968,06	-4,1606E01
968,35	-4,7417E01
968,64	-4,2574E01
968,93	-3,7419E01
969,22	-4,0699E01
969,52	-4,3732E01
969,81	-3,9346E01
970,10	-4,4786E01
970,39	-4,1159E01
970,68	-3,8255E01
970,97	-3,7399E01
971,26	-3,7623E01
971,55	-4,5357E01
971,84	-5,2666E01
972,13	-4,1075E01
972,42	-4,5176E01
972,71	-5,0729E01
973,01	-4,4630E01
973,30	-4,2655E01
973,59	-3,4228E01
973,88	-2,8256E01
974,17	-3,9828E01
974,46	-4,5526E01
974,75	-3,9838E01
975,04	-5,5509E01
975,33	-5,7897E01
975,62	-4,1451E01
975,91	-5,4100E01
976,20	-4,6118E01
976,49	-5,5378E01
976,78	-4,0908E01
977,07	-3,7182E01
977,36	-5,2653E01
977,64	-5,0595E01
977,93	-4,1907E01
978,22	-4,3090E01
978,51	-5,4001E01
978,80	-6,0732E01
979,09	-5,0742E01
979,38	-4,5713E01
979,67	-5,4779E01
979,96	-4,6184E01
980,25	-5,5388E01
980,54	-4,8183E01
980,83	-6,3133E01
981,12	-4,8904E01
981,40	-5,5126E01
981,69	-4,7029E01
981,98	-5,3587E01
982,27	-6,4412E01
982,56	-6,3494E01
982,85	-5,3784E01
983,14	-4,6703E01
983,42	-6,5256E01
983,71	-4,5992E01
984,00	-6,3384E01
984,29	-6,3844E01
984,58	-5,7969E01
984,87	-6,0628E01
985,15	-7,1518E01
985,44	-6,1539E01
985,73	-6,3562E01
986,02	-5,7189E01
986,31	-5,8850E01
986,59	-7,0648E01
986,88	-5,6772E01
987,17	-7,1421E01
987,46	-6,7576E01
987,74	-6,5432E01
988,03	-7,8062E01
988,32	-1,0352E02
988,61	-6,4933E01
988,89	-7,2442E01
989,18	-5,9189E01
989,47	-5,8014E01
989,76	-7,8746E01
990,04	-8,3176E01
990,33	-7,6090E01
990,62	-6,2416E01
990,90	-6,6882E01
991,19	-9,3099E01
991,48	-5,0235E01
991,76	-8,3808E01
992,05	-7,2755E01
992,34	-7,5372E01
992,62	-7,2256E01
992,91	-6,1725E01
993,20	-5,2940E01
993,48	-8,7875E01
993,77	-6,7226E01
994,06	-8,2162E01
994,34	-9,2525E01
994,63	-7,8707E01
994,92	-8,2291E01
995,20	-7,4664E01
995,49	-7,2240E01
995,77	-6,5836E01
996,06	-7,7224E01
996,35	-7,7330E01
996,63	-6,7138E01
996,92	-1,0081E02
997,20	-8,7982E01
997,49	-6,1500E01
997,77	-1,2145E02
998,06	-9,1543E01
998,34	-9,0623E01
998,63	-7,2555E01
998,92	-9,0553E01
999,20	-9,3490E01
999,49	-1,1028E02
999,77	-8,7174E01
1000,06	-1,0146E02
1000,34	-8,3583E01
1000,63	-1,0797E02
1000,91	-1,0667E02
1001,20	-1,0897E02
1001,48	-9,7276E01
1001,77	-9,2155E01
1002,05	-1,0296E02
1002,34	-1,1534E02
1002,62	-1,0877E02
1002,90	-1,0477E02
1003,19	-1,1339E02
1003,47	-1,1778E02
1003,76	-7,5600E01
1004,04	-1,1957E02
1004,33	-1,3936E02
1004,61	-1,0286E02
1004,89	-9,7763E01
1005,18	-8,2855E01
1005,46	-1,2890E02
1005,75	-1,3801E02
1006,03	-1,5214E02
1006,31	-1,3135E02
1006,60	-1,1942E02
1006,88	-1,3159E02
1007,17	-1,0542E02
1007,45	-1,3565E02
1007,73	-1,0468E02
1008,02	-1,3984E02
1008,30	-1,4177E02
1008,58	-1,2165E02
1008,87	-1,0490E02
1009,15	-1,4218E02
1009,43	-1,3080E02
1009,72	-1,1230E02
1010,00	-1,5008E02
1010,28	-1,5033E02
1010,57	-1,1174E02
1010,85	-1,6829E02
1011,13	-1,3691E02
1011,41	-1,2127E02
1011,70	-1,3128E02
1011,98	-1,1327E02
1012,26	-1,5173E02
1012,55	-1,4011E02
1012,83	-1,2514E02
1013,11	-1,3476E02
1013,39	-1,3501E02
1013,68	-1,7769E02
1013,96	-1,8166E02
1014,24	-1,4061E02
1014,52	-1,4968E02
1014,80	-1,5613E02
1015,09	-1,5505E02
1015,37	-1,5495E02
1015,65	-1,8074E02
1015,93	-1,6586E02
1016,21	-1,6590E02
1016,50	-1,7414E02
1016,78	-1,8778E02
1017,06	-1,6842E02
1017,34	-1,7055E02
1017,62	-2,0823E02
1017,90	-1,7293E02
1018,19	-1,5892E02
1018,47	-2,1119E02
1018,75	-1,9974E02
1019,03	-1,9604E02
1019,31	-2,0629E02
1019,59	-2,3027E02
1019,87	-2,1723E02
1020,15	-2,2071E02
1020,44	-2,3405E02
1020,72	-1,9661E02
1021,00	-1,7611E02
1021,28	-1,8597E02
1021,56	-2,2125E02
1021,84	-2,4345E02
1022,12	-2,2105E02
1022,40	-2,4618E02
1022,68	-2,1921E02
1022,96	-2,0613E02
1023,24	-2,7475E02
1023,52	-2,6601E02
1023,80	-2,6616E02
1024,08	-2,6616E02
>>>>>End Processed Spectral Data<<<<<
