SpectraSuite Datei
++++++++++++++++++++++++++++++++++++
Datum: Thu Jan 20 12:23:20 CET 2022
Benutzer: RMV
Dark-Spektrum vorhanden: Ja
Referenz-Spektrum vorhanden: Nein
Zahl der probierten Teilspektren: 1
Spektrometer: USB2+H07983
Integrationszeit (usec): 3170 (USB2+H07983)
Spektren Durchschnitt berechnet: 1 (USB2+H07983)
Boxcar Glättung: 0 (USB2+H07983)
Dunkelstromkorrektur: Nein (USB2+H07983)
Puls/Lampe aktiviert: Nein (USB2+H07983)
Correct for Detector Non-linearity: Nein (USB2+H07983)
Streulichtkorrektur: Nein (USB2+H07983)
Anzahl Pixel in verarbeitetem Spektrum: 2048
>>>>>Begin Processed Spectral Data<<<<<
339,47	-0,0000E00
339,85	-0,0000E00
340,24	-0,0000E00
340,62	-0,0000E00
341,01	-0,0000E00
341,39	-0,0000E00
341,77	-0,0000E00
342,16	-0,0000E00
342,54	-0,0000E00
342,92	-0,0000E00
343,31	-0,0000E00
343,69	-0,0000E00
344,07	-0,0000E00
344,46	-0,0000E00
344,84	-0,0000E00
345,22	-0,0000E00
345,61	-0,0000E00
345,99	-0,0000E00
346,37	-0,0000E00
346,76	-0,0000E00
347,14	-0,0000E00
347,52	-0,0000E00
347,91	-0,0000E00
348,29	-0,0000E00
348,67	-6,1088E00
349,05	-3,5412E00
349,44	-5,1384E00
349,82	-4,4489E00
350,20	-3,7912E00
350,59	-3,2284E00
350,97	-3,8855E00
351,35	-3,0100E00
351,73	-3,4460E00
352,12	-2,8632E00
352,50	-3,5528E00
352,88	-3,0719E00
353,26	-2,7377E00
353,65	-3,1840E00
354,03	-3,4340E00
354,41	-3,9374E00
354,79	-1,9205E00
355,17	-2,5892E00
355,56	-2,9051E00
355,94	-2,5098E00
356,32	-2,8836E00
356,70	-2,9739E00
357,08	-2,0151E00
357,47	-3,2823E00
357,85	-3,3856E00
358,23	-3,2278E00
358,61	-4,0253E00
358,99	-2,8785E00
359,38	-2,3922E00
359,76	-2,8782E00
360,14	-4,6469E00
360,52	-3,1887E00
360,90	-2,1644E00
361,28	-2,3858E00
361,66	-3,2627E00
362,05	-2,4688E00
362,43	-2,0051E00
362,81	-3,4817E00
363,19	-2,1858E00
363,57	-3,0144E00
363,95	-2,3849E00
364,33	-2,8448E00
364,71	-2,5112E00
365,10	-2,9943E00
365,48	-3,8131E00
365,86	-3,3042E00
366,24	-3,0380E00
366,62	-2,0464E00
367,00	-1,8569E00
367,38	-1,8900E00
367,76	-1,9849E00
368,14	-2,2823E00
368,52	-2,1445E00
368,90	-1,6484E00
369,28	-2,0247E00
369,66	-2,3491E00
370,04	-2,9969E00
370,42	-3,1316E00
370,81	-2,9666E00
371,19	-2,6754E00
371,57	-2,2381E00
371,95	-2,3742E00
372,33	-1,7196E00
372,71	-2,3790E00
373,09	-2,9670E00
373,47	-5,6862E-01
373,85	-9,5491E-01
374,23	-2,3012E00
374,61	-1,8977E00
374,99	-1,2920E00
375,37	-1,3336E00
375,75	-1,7161E00
376,13	-1,5529E00
376,51	-6,1256E-01
376,88	-1,0477E00
377,26	-1,7139E00
377,64	-7,9331E-01
378,02	-9,5434E-01
378,40	-6,9045E-01
378,78	-1,5672E00
379,16	-2,0229E00
379,54	-2,0959E-01
379,92	-1,5962E00
380,30	-1,1291E00
380,68	-8,9451E-01
381,06	-9,5848E-01
381,44	-1,4379E00
381,82	-1,1381E-01
382,20	-5,6679E-01
382,57	-4,2662E-01
382,95	-5,1247E-01
383,33	-4,8804E-01
383,71	-9,2633E-01
384,09	-1,2056E00
384,47	-8,9504E-01
384,85	-8,2264E-01
385,23	-1,1218E00
385,60	3,6319E-01
385,98	0,0000E00
386,36	5,8884E-01
386,74	-6,2961E-02
387,12	5,0013E-01
387,50	5,3857E-01
387,88	8,2612E-02
388,25	-3,0814E-01
388,63	4,0766E-02
389,01	6,4951E-01
389,39	4,0263E-01
389,77	5,6151E-01
390,14	-1,9930E-01
390,52	2,1729E-01
390,90	8,0336E-01
391,28	-1,9506E-02
391,66	0,0000E00
392,03	1,5434E-01
392,41	9,3857E-01
392,79	1,7139E00
393,17	1,2109E00
393,54	1,5019E-01
393,92	8,3862E-01
394,30	1,3538E00
394,68	1,2006E00
395,06	1,3015E00
395,43	1,0926E00
395,81	1,4065E00
396,19	1,4667E00
396,56	1,2293E00
396,94	1,7526E00
397,32	1,6557E00
397,70	1,5953E00
398,07	1,9758E00
398,45	2,2054E00
398,83	1,3836E00
399,20	2,0667E00
399,58	1,6796E00
399,96	1,9935E00
400,34	1,6981E00
400,71	2,4824E00
401,09	1,7440E00
401,47	1,9523E00
401,84	1,8123E00
402,22	2,3566E00
402,60	2,1495E00
402,97	1,4995E00
403,35	2,8613E00
403,73	2,7782E00
404,10	1,8498E00
404,48	1,6810E00
404,85	2,4844E00
405,23	2,4580E00
405,61	2,6504E00
405,98	2,5568E00
406,36	2,4229E00
406,74	2,6558E00
407,11	2,9059E00
407,49	2,7168E00
407,86	2,5708E00
408,24	3,2647E00
408,62	2,9028E00
408,99	3,8344E00
409,37	2,9921E00
409,74	3,6246E00
410,12	3,3710E00
410,49	4,0516E00
410,87	3,0769E00
411,25	3,0614E00
411,62	3,7384E00
412,00	3,6605E00
412,37	3,9827E00
412,75	2,9982E00
413,12	3,4296E00
413,50	3,6177E00
413,87	4,0998E00
414,25	3,9097E00
414,62	4,2047E00
415,00	4,0178E00
415,37	4,4941E00
415,75	4,7887E00
416,12	4,5138E00
416,50	4,0561E00
416,87	4,5778E00
417,25	5,1118E00
417,62	3,4910E00
418,00	4,9222E00
418,37	4,7210E00
418,75	4,5126E00
419,12	4,6763E00
419,50	4,4764E00
419,87	4,6530E00
420,25	5,0871E00
420,62	5,3001E00
420,99	5,1303E00
421,37	5,2649E00
421,74	4,8550E00
422,12	3,3042E00
422,49	5,2045E00
422,87	5,8034E00
423,24	5,7738E00
423,61	6,2574E00
423,99	5,7029E00
424,36	6,0108E00
424,74	6,1542E00
425,11	6,4973E00
425,48	6,2562E00
425,86	6,2430E00
426,23	6,1311E00
426,60	5,9032E00
426,98	6,5014E00
427,35	6,8913E00
427,73	6,3357E00
428,10	6,5715E00
428,47	7,0494E00
428,85	6,9075E00
429,22	7,3017E00
429,59	7,5059E00
429,97	6,9241E00
430,34	7,2146E00
430,71	7,5832E00
431,09	7,5111E00
431,46	7,4687E00
431,83	7,2655E00
432,21	7,3208E00
432,58	7,2580E00
432,95	7,6407E00
433,32	7,6036E00
433,70	8,4941E00
434,07	7,8122E00
434,44	8,0826E00
434,82	8,0987E00
435,19	8,4150E00
435,56	8,3374E00
435,93	7,8510E00
436,31	8,4240E00
436,68	8,4770E00
437,05	8,4310E00
437,42	7,8675E00
437,80	9,4974E00
438,17	8,9759E00
438,54	9,0337E00
438,91	8,7204E00
439,28	8,7453E00
439,66	9,1599E00
440,03	8,7877E00
440,40	9,4487E00
440,77	9,0515E00
441,14	8,7442E00
441,52	9,5873E00
441,89	9,2120E00
442,26	1,0008E01
442,63	9,8265E00
443,00	9,7035E00
443,38	9,6252E00
443,75	9,9951E00
444,12	9,9369E00
444,49	1,0001E01
444,86	1,0017E01
445,23	9,6284E00
445,60	1,0010E01
445,98	1,0291E01
446,35	1,0097E01
446,72	1,0406E01
447,09	1,0211E01
447,46	9,7585E00
447,83	1,0587E01
448,20	1,1019E01
448,57	1,0487E01
448,94	1,0378E01
449,32	1,0642E01
449,69	1,1083E01
450,06	1,0843E01
450,43	1,0870E01
450,80	1,1064E01
451,17	1,1089E01
451,54	1,1537E01
451,91	1,1784E01
452,28	1,1599E01
452,65	1,1570E01
453,02	1,1794E01
453,39	1,1642E01
453,76	1,1555E01
454,13	1,2134E01
454,50	1,2094E01
454,87	1,1937E01
455,24	1,1760E01
455,61	1,2483E01
455,98	1,2305E01
456,35	1,2187E01
456,72	1,2293E01
457,09	1,2572E01
457,46	1,2665E01
457,83	1,2565E01
458,20	1,2751E01
458,57	1,3419E01
458,94	1,3225E01
459,31	1,2833E01
459,68	1,3634E01
460,05	1,3132E01
460,42	1,3738E01
460,79	1,4132E01
461,16	1,4177E01
461,53	1,4207E01
461,90	1,4266E01
462,27	1,4455E01
462,64	1,4067E01
463,01	1,5021E01
463,38	1,4933E01
463,75	1,4652E01
464,12	1,4989E01
464,48	1,4665E01
464,85	1,4942E01
465,22	1,5061E01
465,59	1,5121E01
465,96	1,6151E01
466,33	1,6306E01
466,70	1,5717E01
467,07	1,6316E01
467,44	1,6973E01
467,80	1,6870E01
468,17	1,6770E01
468,54	1,5986E01
468,91	1,6438E01
469,28	1,7275E01
469,65	1,6801E01
470,02	1,7727E01
470,38	1,7855E01
470,75	1,7959E01
471,12	1,7567E01
471,49	1,7809E01
471,86	1,8558E01
472,22	1,9027E01
472,59	1,8764E01
472,96	1,9241E01
473,33	1,9244E01
473,70	2,0058E01
474,06	1,9795E01
474,43	1,9813E01
474,80	2,0172E01
475,17	2,0130E01
475,54	2,0416E01
475,90	2,1003E01
476,27	2,1031E01
476,64	2,1380E01
477,01	2,1107E01
477,37	2,1489E01
477,74	2,1151E01
478,11	2,1545E01
478,48	2,1034E01
478,84	2,1829E01
479,21	2,2135E01
479,58	2,2783E01
479,94	2,2330E01
480,31	2,2724E01
480,68	2,3167E01
481,05	2,2506E01
481,41	2,3229E01
481,78	2,3427E01
482,15	2,3341E01
482,51	2,3150E01
482,88	2,3421E01
483,25	2,3770E01
483,61	2,3659E01
483,98	2,4200E01
484,35	2,3815E01
484,71	2,4112E01
485,08	2,4145E01
485,45	2,4216E01
485,81	2,4528E01
486,18	2,4336E01
486,54	2,4609E01
486,91	2,4676E01
487,28	2,5052E01
487,64	2,5143E01
488,01	2,5172E01
488,38	2,4926E01
488,74	2,5470E01
489,11	2,5004E01
489,47	2,5177E01
489,84	2,4767E01
490,20	2,5581E01
490,57	2,5542E01
490,94	2,5836E01
491,30	2,5931E01
491,67	2,5827E01
492,03	2,5436E01
492,40	2,5815E01
492,76	2,5848E01
493,13	2,5894E01
493,50	2,6002E01
493,86	2,5972E01
494,23	2,6580E01
494,59	2,6614E01
494,96	2,6249E01
495,32	2,6649E01
495,69	2,6902E01
496,05	2,6893E01
496,42	2,6632E01
496,78	2,7391E01
497,15	2,6871E01
497,51	2,7222E01
497,88	2,7257E01
498,24	2,7416E01
498,61	2,8118E01
498,97	2,7780E01
499,34	2,7844E01
499,70	2,7523E01
500,06	2,7838E01
500,43	2,8061E01
500,79	2,7985E01
501,16	2,7681E01
501,52	2,8574E01
501,89	2,8533E01
502,25	2,8577E01
502,62	2,8661E01
502,98	2,8971E01
503,34	2,9006E01
503,71	2,9220E01
504,07	2,9092E01
504,44	2,9407E01
504,80	2,8657E01
505,16	3,0131E01
505,53	2,9785E01
505,89	2,9582E01
506,26	2,9953E01
506,62	2,9908E01
506,98	2,9869E01
507,35	3,0069E01
507,71	2,9748E01
508,07	3,0250E01
508,44	3,0515E01
508,80	2,9926E01
509,16	3,0329E01
509,53	3,1026E01
509,89	3,0668E01
510,25	3,0996E01
510,62	3,1131E01
510,98	3,1343E01
511,34	3,0915E01
511,71	3,1241E01
512,07	3,1559E01
512,43	3,1756E01
512,80	3,1659E01
513,16	3,1505E01
513,52	3,1389E01
513,88	3,1725E01
514,25	3,1664E01
514,61	3,2055E01
514,97	3,2142E01
515,33	3,2672E01
515,70	3,2464E01
516,06	3,2690E01
516,42	3,2742E01
516,78	3,3066E01
517,15	3,2734E01
517,51	3,2795E01
517,87	3,3216E01
518,23	3,2437E01
518,60	3,3067E01
518,96	3,3242E01
519,32	3,3501E01
519,68	3,4187E01
520,04	3,3716E01
520,41	3,3344E01
520,77	3,3965E01
521,13	3,4160E01
521,49	3,4381E01
521,85	3,4482E01
522,22	3,4949E01
522,58	3,5102E01
522,94	3,4868E01
523,30	3,5039E01
523,66	3,5010E01
524,02	3,5389E01
524,38	3,5567E01
524,75	3,5665E01
525,11	3,5990E01
525,47	3,5722E01
525,83	3,5932E01
526,19	3,6059E01
526,55	3,6273E01
526,91	3,5822E01
527,27	3,6792E01
527,64	3,6112E01
528,00	3,7030E01
528,36	3,6886E01
528,72	3,6719E01
529,08	3,6854E01
529,44	3,7394E01
529,80	3,7136E01
530,16	3,8071E01
530,52	3,7699E01
530,88	3,7500E01
531,24	3,7776E01
531,60	3,8566E01
531,96	3,7822E01
532,32	3,7818E01
532,68	3,8679E01
533,04	3,8468E01
533,40	3,9424E01
533,77	3,8247E01
534,13	3,8934E01
534,49	3,8607E01
534,85	3,8936E01
535,21	3,9442E01
535,57	3,9580E01
535,93	3,9659E01
536,29	3,9696E01
536,65	3,9670E01
537,00	3,9470E01
537,36	4,0128E01
537,72	4,0677E01
538,08	4,0229E01
538,44	4,0487E01
538,80	4,0751E01
539,16	4,0632E01
539,52	4,0724E01
539,88	4,1114E01
540,24	4,1060E01
540,60	4,1245E01
540,96	4,1319E01
541,32	4,2063E01
541,68	4,1515E01
542,04	4,1847E01
542,40	4,1314E01
542,75	4,2034E01
543,11	4,2518E01
543,47	4,2504E01
543,83	4,2350E01
544,19	4,2904E01
544,55	4,2910E01
544,91	4,3127E01
545,27	4,3265E01
545,63	4,2888E01
545,98	4,3358E01
546,34	4,3365E01
546,70	4,4019E01
547,06	4,3901E01
547,42	4,4386E01
547,78	4,4034E01
548,13	4,4163E01
548,49	4,4045E01
548,85	4,3768E01
549,21	4,4381E01
549,57	4,4469E01
549,93	4,5052E01
550,28	4,4933E01
550,64	4,4990E01
551,00	4,4860E01
551,36	4,4941E01
551,71	4,5829E01
552,07	4,5094E01
552,43	4,5814E01
552,79	4,5956E01
553,15	4,5157E01
553,50	4,6254E01
553,86	4,5936E01
554,22	4,6137E01
554,58	4,6347E01
554,93	4,6924E01
555,29	4,6277E01
555,65	4,6835E01
556,01	4,6770E01
556,36	4,7437E01
556,72	4,7427E01
557,08	4,7116E01
557,43	4,7814E01
557,79	4,8488E01
558,15	4,7781E01
558,50	4,8393E01
558,86	4,8005E01
559,22	4,8734E01
559,58	4,8715E01
559,93	4,9018E01
560,29	4,8791E01
560,65	4,8558E01
561,00	4,8777E01
561,36	4,9146E01
561,71	4,9364E01
562,07	4,9210E01
562,43	4,9760E01
562,78	4,9588E01
563,14	5,0221E01
563,50	4,9993E01
563,85	4,9975E01
564,21	4,9860E01
564,57	5,0202E01
564,92	5,0427E01
565,28	4,9986E01
565,63	5,0802E01
565,99	5,0155E01
566,35	5,0708E01
566,70	5,0905E01
567,06	5,1183E01
567,41	5,1258E01
567,77	5,1476E01
568,12	5,1223E01
568,48	5,1667E01
568,83	5,1415E01
569,19	5,2795E01
569,55	5,2044E01
569,90	5,2404E01
570,26	5,2316E01
570,61	5,2757E01
570,97	5,2227E01
571,32	5,1696E01
571,68	5,2692E01
572,03	5,3571E01
572,39	5,2714E01
572,74	5,2907E01
573,10	5,3627E01
573,45	5,3180E01
573,81	5,4003E01
574,16	5,4061E01
574,52	5,3442E01
574,87	5,4564E01
575,23	5,3662E01
575,58	5,4062E01
575,94	5,4700E01
576,29	5,5053E01
576,64	5,4824E01
577,00	5,4450E01
577,35	5,4394E01
577,71	5,4557E01
578,06	5,5422E01
578,42	5,5622E01
578,77	5,5574E01
579,12	5,5275E01
579,48	5,5580E01
579,83	5,5677E01
580,19	5,5882E01
580,54	5,5577E01
580,89	5,6392E01
581,25	5,6725E01
581,60	5,6513E01
581,96	5,6381E01
582,31	5,6058E01
582,66	5,6474E01
583,02	5,7206E01
583,37	5,7302E01
583,72	5,7260E01
584,08	5,7792E01
584,43	5,8205E01
584,78	5,8186E01
585,14	5,7855E01
585,49	5,8046E01
585,84	5,9053E01
586,20	5,8458E01
586,55	5,8305E01
586,90	5,8750E01
587,26	5,8715E01
587,61	5,9199E01
587,96	5,9303E01
588,32	5,9011E01
588,67	5,9863E01
589,02	5,9650E01
589,37	5,9243E01
589,73	6,0048E01
590,08	5,9588E01
590,43	6,0445E01
590,78	6,0685E01
591,14	6,0934E01
591,49	6,0135E01
591,84	6,1294E01
592,19	6,1247E01
592,55	6,1570E01
592,90	6,1106E01
593,25	6,1948E01
593,60	6,1820E01
593,96	6,1495E01
594,31	6,1512E01
594,66	6,2228E01
595,01	6,2491E01
595,36	6,2461E01
595,72	6,3292E01
596,07	6,2607E01
596,42	6,2587E01
596,77	6,2564E01
597,12	6,3601E01
597,47	6,3339E01
597,83	6,4279E01
598,18	6,4374E01
598,53	6,4042E01
598,88	6,4118E01
599,23	6,4082E01
599,58	6,4409E01
599,93	6,5048E01
600,29	6,4804E01
600,64	6,4801E01
600,99	6,5210E01
601,34	6,4878E01
601,69	6,5080E01
602,04	6,5433E01
602,39	6,5966E01
602,74	6,5396E01
603,09	6,5785E01
603,44	6,6959E01
603,80	6,5938E01
604,15	6,7659E01
604,50	6,7121E01
604,85	6,6363E01
605,20	6,6002E01
605,55	6,7863E01
605,90	6,7198E01
606,25	6,6846E01
606,60	6,8432E01
606,95	6,7253E01
607,30	6,7323E01
607,65	6,8318E01
608,00	6,7752E01
608,35	6,7337E01
608,70	6,8256E01
609,05	6,7939E01
609,40	6,8336E01
609,75	6,8625E01
610,10	6,8673E01
610,45	6,9081E01
610,80	6,8831E01
611,15	6,9266E01
611,50	7,0084E01
611,85	6,8434E01
612,20	6,9141E01
612,55	6,9569E01
612,90	7,0389E01
613,25	6,9882E01
613,60	6,9602E01
613,95	6,9870E01
614,30	7,0394E01
614,64	7,0480E01
614,99	7,0180E01
615,34	7,0432E01
615,69	7,0778E01
616,04	7,1310E01
616,39	7,2104E01
616,74	7,1474E01
617,09	7,1321E01
617,44	7,1083E01
617,79	7,1475E01
618,13	7,1756E01
618,48	7,2524E01
618,83	7,2035E01
619,18	7,2811E01
619,53	7,2558E01
619,88	7,2970E01
620,23	7,3150E01
620,57	7,3198E01
620,92	7,2918E01
621,27	7,2375E01
621,62	7,4352E01
621,97	7,4601E01
622,32	7,3711E01
622,66	7,3919E01
623,01	7,3180E01
623,36	7,4459E01
623,71	7,5182E01
624,06	7,4525E01
624,40	7,4855E01
624,75	7,4993E01
625,10	7,5265E01
625,45	7,4783E01
625,80	7,5658E01
626,14	7,5551E01
626,49	7,6350E01
626,84	7,5532E01
627,19	7,6156E01
627,53	7,6086E01
627,88	7,6426E01
628,23	7,6846E01
628,57	7,6398E01
628,92	7,6722E01
629,27	7,7277E01
629,62	7,8130E01
629,96	7,6838E01
630,31	7,6355E01
630,66	7,7008E01
631,00	7,7205E01
631,35	7,8543E01
631,70	7,7766E01
632,05	7,7625E01
632,39	7,9129E01
632,74	7,8615E01
633,09	7,8989E01
633,43	7,8667E01
633,78	7,9615E01
634,12	7,8596E01
634,47	7,8768E01
634,82	7,9193E01
635,16	7,9470E01
635,51	8,0868E01
635,86	8,0176E01
636,20	8,0337E01
636,55	7,9043E01
636,90	8,1204E01
637,24	8,1071E01
637,59	8,1595E01
637,93	8,1784E01
638,28	8,0928E01
638,63	8,0522E01
638,97	8,1795E01
639,32	8,1296E01
639,66	8,1375E01
640,01	8,2389E01
640,35	8,1587E01
640,70	8,2442E01
641,04	8,2539E01
641,39	8,1465E01
641,74	8,2326E01
642,08	8,2800E01
642,43	8,3794E01
642,77	8,3634E01
643,12	8,3076E01
643,46	8,3360E01
643,81	8,2614E01
644,15	8,2533E01
644,50	8,3925E01
644,84	8,4292E01
645,19	8,4017E01
645,53	8,5388E01
645,88	8,3777E01
646,22	8,6591E01
646,57	8,4795E01
646,91	8,4286E01
647,26	8,6149E01
647,60	8,6119E01
647,94	8,6506E01
648,29	8,5674E01
648,63	8,4861E01
648,98	8,7349E01
649,32	8,5571E01
649,67	8,5905E01
650,01	8,5615E01
650,36	8,6914E01
650,70	8,7795E01
651,04	8,5802E01
651,39	8,7929E01
651,73	8,8024E01
652,08	8,8586E01
652,42	8,6836E01
652,76	8,7784E01
653,11	8,7178E01
653,45	8,8344E01
653,79	8,8811E01
654,14	8,9321E01
654,48	8,9083E01
654,83	8,8578E01
655,17	8,8356E01
655,51	8,9141E01
655,86	8,9454E01
656,20	8,9812E01
656,54	8,9214E01
656,89	8,9944E01
657,23	9,0665E01
657,57	8,9593E01
657,91	8,9767E01
658,26	9,0431E01
658,60	9,0523E01
658,94	9,1578E01
659,29	9,1804E01
659,63	8,9867E01
659,97	9,0872E01
660,32	9,1630E01
660,66	9,0473E01
661,00	9,0986E01
661,34	9,2171E01
661,69	9,1544E01
662,03	9,2895E01
662,37	9,3873E01
662,71	9,2197E01
663,06	9,3373E01
663,40	9,2481E01
663,74	9,3458E01
664,08	9,2709E01
664,42	9,3961E01
664,77	9,3166E01
665,11	9,3407E01
665,45	9,3770E01
665,79	9,3963E01
666,13	9,4570E01
666,48	9,4492E01
666,82	9,4941E01
667,16	9,4693E01
667,50	9,4776E01
667,84	9,4947E01
668,18	9,4185E01
668,53	9,5356E01
668,87	9,5060E01
669,21	9,5613E01
669,55	9,6704E01
669,89	9,7351E01
670,23	9,6772E01
670,57	9,5511E01
670,92	9,6218E01
671,26	9,6992E01
671,60	9,6345E01
671,94	9,7360E01
672,28	9,6802E01
672,62	9,8546E01
672,96	9,6737E01
673,30	9,7260E01
673,64	9,7525E01
673,98	9,9030E01
674,33	9,7428E01
674,67	1,0002E02
675,01	9,8241E01
675,35	9,9203E01
675,69	9,8481E01
676,03	9,9501E01
676,37	9,8661E01
676,71	9,9863E01
677,05	9,9128E01
677,39	9,7843E01
677,73	1,0065E02
678,07	9,9519E01
678,41	1,0086E02
678,75	1,0049E02
679,09	1,0062E02
679,43	1,0203E02
679,77	9,9433E01
680,11	1,0113E02
680,45	1,0046E02
680,79	1,0078E02
681,13	1,0241E02
681,47	1,0196E02
681,81	1,0130E02
682,15	1,0246E02
682,49	1,0170E02
682,83	1,0359E02
683,17	1,0192E02
683,51	1,0343E02
683,84	1,0175E02
684,18	1,0263E02
684,52	1,0391E02
684,86	1,0323E02
685,20	1,0357E02
685,54	1,0465E02
685,88	1,0334E02
686,22	1,0446E02
686,56	1,0372E02
686,90	1,0489E02
687,24	1,0521E02
687,57	1,0583E02
687,91	1,0506E02
688,25	1,0588E02
688,59	1,0531E02
688,93	1,0521E02
689,27	1,0644E02
689,61	1,0673E02
689,94	1,0440E02
690,28	1,0687E02
690,62	1,0592E02
690,96	1,0554E02
691,30	1,0623E02
691,64	1,0499E02
691,97	1,0655E02
692,31	1,0687E02
692,65	1,0610E02
692,99	1,0862E02
693,33	1,0808E02
693,66	1,0847E02
694,00	1,0979E02
694,34	1,0727E02
694,68	1,0828E02
695,01	1,0869E02
695,35	1,0805E02
695,69	1,0965E02
696,03	1,0798E02
696,36	1,0776E02
696,70	1,0971E02
697,04	1,0839E02
697,38	1,0885E02
697,71	1,1002E02
698,05	1,1084E02
698,39	1,0983E02
698,72	1,1023E02
699,06	1,0906E02
699,40	1,1045E02
699,74	1,1085E02
700,07	1,1221E02
700,41	1,1146E02
700,75	1,1160E02
701,08	1,1133E02
701,42	1,1074E02
701,76	1,1192E02
702,09	1,1228E02
702,43	1,1190E02
702,77	1,1168E02
703,10	1,1382E02
703,44	1,1137E02
703,77	1,1234E02
704,11	1,1373E02
704,45	1,1306E02
704,78	1,1195E02
705,12	1,1448E02
705,46	1,1459E02
705,79	1,1245E02
706,13	1,1452E02
706,46	1,1335E02
706,80	1,1299E02
707,14	1,1588E02
707,47	1,1449E02
707,81	1,1400E02
708,14	1,1496E02
708,48	1,1652E02
708,81	1,1572E02
709,15	1,1428E02
709,48	1,1433E02
709,82	1,1745E02
710,16	1,1632E02
710,49	1,1539E02
710,83	1,1652E02
711,16	1,1418E02
711,50	1,1685E02
711,83	1,1551E02
712,17	1,1657E02
712,50	1,1598E02
712,84	1,1595E02
713,17	1,1639E02
713,51	1,1519E02
713,84	1,1565E02
714,18	1,1812E02
714,51	1,1642E02
714,85	1,1674E02
715,18	1,1441E02
715,51	1,1593E02
715,85	1,1563E02
716,18	1,1786E02
716,52	1,1794E02
716,85	1,1769E02
717,19	1,1736E02
717,52	1,1769E02
717,86	1,1761E02
718,19	1,1730E02
718,52	1,1683E02
718,86	1,1881E02
719,19	1,1865E02
719,53	1,1839E02
719,86	1,1882E02
720,19	1,1731E02
720,53	1,1979E02
720,86	1,1884E02
721,19	1,2015E02
721,53	1,1960E02
721,86	1,1999E02
722,20	1,1988E02
722,53	1,2132E02
722,86	1,2157E02
723,20	1,2012E02
723,53	1,2114E02
723,86	1,2269E02
724,20	1,2103E02
724,53	1,2099E02
724,86	1,2128E02
725,19	1,2360E02
725,53	1,2191E02
725,86	1,2228E02
726,19	1,2196E02
726,53	1,2256E02
726,86	1,2387E02
727,19	1,2399E02
727,53	1,2394E02
727,86	1,2376E02
728,19	1,2422E02
728,52	1,2372E02
728,86	1,2156E02
729,19	1,2360E02
729,52	1,2290E02
729,85	1,2428E02
730,19	1,2570E02
730,52	1,2501E02
730,85	1,2405E02
731,18	1,2636E02
731,51	1,2474E02
731,85	1,2469E02
732,18	1,2306E02
732,51	1,2683E02
732,84	1,2306E02
733,17	1,2298E02
733,51	1,2471E02
733,84	1,2529E02
734,17	1,2477E02
734,50	1,2580E02
734,83	1,2657E02
735,16	1,2481E02
735,50	1,2408E02
735,83	1,2604E02
736,16	1,2456E02
736,49	1,2661E02
736,82	1,2651E02
737,15	1,2679E02
737,48	1,2590E02
737,81	1,2762E02
738,15	1,2760E02
738,48	1,2596E02
738,81	1,2689E02
739,14	1,2766E02
739,47	1,2772E02
739,80	1,2594E02
740,13	1,2582E02
740,46	1,2738E02
740,79	1,2769E02
741,12	1,2601E02
741,45	1,2703E02
741,78	1,2557E02
742,11	1,2693E02
742,44	1,2830E02
742,78	1,2792E02
743,11	1,3062E02
743,44	1,2704E02
743,77	1,2698E02
744,10	1,2968E02
744,43	1,2863E02
744,76	1,2917E02
745,09	1,2791E02
745,42	1,2855E02
745,75	1,2900E02
746,08	1,3046E02
746,41	1,2819E02
746,74	1,2904E02
747,07	1,3090E02
747,40	1,3020E02
747,72	1,2934E02
748,05	1,3016E02
748,38	1,3115E02
748,71	1,2963E02
749,04	1,3006E02
749,37	1,2971E02
749,70	1,3078E02
750,03	1,3163E02
750,36	1,3108E02
750,69	1,3031E02
751,02	1,2895E02
751,35	1,2932E02
751,68	1,3086E02
752,00	1,3069E02
752,33	1,2839E02
752,66	1,3150E02
752,99	1,3159E02
753,32	1,3023E02
753,65	1,3048E02
753,98	1,3124E02
754,31	1,3179E02
754,63	1,3046E02
754,96	1,3210E02
755,29	1,3109E02
755,62	1,3096E02
755,95	1,2987E02
756,28	1,3098E02
756,60	1,3398E02
756,93	1,3179E02
757,26	1,3300E02
757,59	1,3253E02
757,92	1,3230E02
758,24	1,3097E02
758,57	1,3360E02
758,90	1,3118E02
759,23	1,3062E02
759,56	1,3423E02
759,88	1,2967E02
760,21	1,3037E02
760,54	1,3120E02
760,87	1,3220E02
761,19	1,3356E02
761,52	1,3141E02
761,85	1,3128E02
762,18	1,3339E02
762,50	1,3109E02
762,83	1,3486E02
763,16	1,3298E02
763,49	1,3223E02
763,81	1,3363E02
764,14	1,3476E02
764,47	1,3300E02
764,79	1,3343E02
765,12	1,3173E02
765,45	1,3211E02
765,77	1,3270E02
766,10	1,3228E02
766,43	1,3471E02
766,75	1,3242E02
767,08	1,3483E02
767,41	1,3349E02
767,73	1,3220E02
768,06	1,3237E02
768,39	1,3426E02
768,71	1,3217E02
769,04	1,3240E02
769,36	1,3271E02
769,69	1,3212E02
770,02	1,3312E02
770,34	1,3111E02
770,67	1,3313E02
770,99	1,3282E02
771,32	1,3349E02
771,65	1,3435E02
771,97	1,3158E02
772,30	1,3104E02
772,62	1,3157E02
772,95	1,3437E02
773,27	1,3309E02
773,60	1,3094E02
773,93	1,3165E02
774,25	1,3161E02
774,58	1,3371E02
774,90	1,3267E02
775,23	1,3311E02
775,55	1,3183E02
775,88	1,3322E02
776,20	1,3118E02
776,53	1,3344E02
776,85	1,3280E02
777,18	1,3270E02
777,50	1,3313E02
777,83	1,3564E02
778,15	1,3404E02
778,48	1,3244E02
778,80	1,3738E02
779,13	1,3639E02
779,45	1,3644E02
779,78	1,3698E02
780,10	1,3769E02
780,42	1,3593E02
780,75	1,3665E02
781,07	1,3639E02
781,40	1,3885E02
781,72	1,3784E02
782,05	1,3882E02
782,37	1,3919E02
782,69	1,3724E02
783,02	1,3890E02
783,34	1,4032E02
783,67	1,3856E02
783,99	1,3601E02
784,31	1,4074E02
784,64	1,3814E02
784,96	1,4068E02
785,28	1,3856E02
785,61	1,4094E02
785,93	1,4031E02
786,25	1,4119E02
786,58	1,4123E02
786,90	1,3821E02
787,22	1,4120E02
787,55	1,4156E02
787,87	1,4087E02
788,19	1,3933E02
788,52	1,4207E02
788,84	1,4168E02
789,16	1,4259E02
789,49	1,4118E02
789,81	1,4147E02
790,13	1,4058E02
790,46	1,3981E02
790,78	1,4188E02
791,10	1,3992E02
791,42	1,4044E02
791,75	1,3856E02
792,07	1,3861E02
792,39	1,3993E02
792,71	1,4138E02
793,04	1,3968E02
793,36	1,4035E02
793,68	1,3898E02
794,00	1,4002E02
794,32	1,4378E02
794,65	1,3783E02
794,97	1,3945E02
795,29	1,4044E02
795,61	1,4086E02
795,93	1,4137E02
796,26	1,3644E02
796,58	1,3900E02
796,90	1,4120E02
797,22	1,3920E02
797,54	1,4058E02
797,87	1,4090E02
798,19	1,3829E02
798,51	1,3781E02
798,83	1,4166E02
799,15	1,4115E02
799,47	1,3768E02
799,79	1,4225E02
800,12	1,3987E02
800,44	1,3924E02
800,76	1,3867E02
801,08	1,4379E02
801,40	1,4013E02
801,72	1,3981E02
802,04	1,4209E02
802,36	1,4159E02
802,68	1,3964E02
803,00	1,3860E02
803,32	1,4029E02
803,65	1,3728E02
803,97	1,3949E02
804,29	1,3919E02
804,61	1,4137E02
804,93	1,3976E02
805,25	1,3746E02
805,57	1,4184E02
805,89	1,4061E02
806,21	1,4040E02
806,53	1,4213E02
806,85	1,3764E02
807,17	1,4083E02
807,49	1,3915E02
807,81	1,4191E02
808,13	1,3899E02
808,45	1,4047E02
808,77	1,4341E02
809,09	1,3894E02
809,41	1,3892E02
809,73	1,4173E02
810,05	1,4150E02
810,37	1,4070E02
810,69	1,4107E02
811,01	1,4160E02
811,33	1,4098E02
811,64	1,4137E02
811,96	1,3870E02
812,28	1,4155E02
812,60	1,4055E02
812,92	1,4267E02
813,24	1,3635E02
813,56	1,3796E02
813,88	1,3733E02
814,20	1,3810E02
814,52	1,4024E02
814,83	1,4123E02
815,15	1,3958E02
815,47	1,4331E02
815,79	1,4025E02
816,11	1,4301E02
816,43	1,4433E02
816,75	1,4269E02
817,06	1,4269E02
817,38	1,4289E02
817,70	1,4266E02
818,02	1,3886E02
818,34	1,4459E02
818,66	1,4165E02
818,97	1,4451E02
819,29	1,4251E02
819,61	1,4333E02
819,93	1,4161E02
820,25	1,4567E02
820,56	1,4571E02
820,88	1,4212E02
821,20	1,4192E02
821,52	1,4591E02
821,84	1,4396E02
822,15	1,4148E02
822,47	1,4437E02
822,79	1,4443E02
823,11	1,4497E02
823,42	1,4230E02
823,74	1,4528E02
824,06	1,4339E02
824,37	1,4634E02
824,69	1,4351E02
825,01	1,4363E02
825,33	1,4657E02
825,64	1,4385E02
825,96	1,4211E02
826,28	1,4172E02
826,59	1,4538E02
826,91	1,4540E02
827,23	1,4637E02
827,54	1,4483E02
827,86	1,4452E02
828,18	1,4300E02
828,49	1,4278E02
828,81	1,4623E02
829,13	1,4370E02
829,44	1,4501E02
829,76	1,4570E02
830,08	1,4874E02
830,39	1,4465E02
830,71	1,4501E02
831,02	1,4543E02
831,34	1,4595E02
831,66	1,4569E02
831,97	1,4624E02
832,29	1,4516E02
832,60	1,4455E02
832,92	1,5015E02
833,23	1,4823E02
833,55	1,4327E02
833,87	1,4163E02
834,18	1,4611E02
834,50	1,4443E02
834,81	1,4773E02
835,13	1,4818E02
835,44	1,4721E02
835,76	1,4626E02
836,07	1,4630E02
836,39	1,4608E02
836,70	1,4626E02
837,02	1,4713E02
837,33	1,4965E02
837,65	1,4496E02
837,96	1,4730E02
838,28	1,4700E02
838,59	1,4465E02
838,91	1,4429E02
839,22	1,4533E02
839,54	1,4761E02
839,85	1,4777E02
840,17	1,4579E02
840,48	1,4962E02
840,80	1,4759E02
841,11	1,4767E02
841,43	1,4802E02
841,74	1,4471E02
842,05	1,4482E02
842,37	1,4727E02
842,68	1,4428E02
843,00	1,4855E02
843,31	1,4404E02
843,62	1,4921E02
843,94	1,4628E02
844,25	1,4493E02
844,57	1,4942E02
844,88	1,4342E02
845,19	1,4749E02
845,51	1,4360E02
845,82	1,4426E02
846,13	1,4793E02
846,45	1,4843E02
846,76	1,5018E02
847,07	1,4999E02
847,39	1,4837E02
847,70	1,5196E02
848,01	1,5071E02
848,33	1,4911E02
848,64	1,5283E02
848,95	1,5119E02
849,27	1,5310E02
849,58	1,5376E02
849,89	1,5140E02
850,21	1,5140E02
850,52	1,4925E02
850,83	1,5419E02
851,14	1,5175E02
851,46	1,5042E02
851,77	1,5199E02
852,08	1,5102E02
852,39	1,5042E02
852,71	1,4813E02
853,02	1,4735E02
853,33	1,5198E02
853,64	1,5586E02
853,96	1,5518E02
854,27	1,4927E02
854,58	1,5139E02
854,89	1,4999E02
855,20	1,5127E02
855,52	1,4832E02
855,83	1,5362E02
856,14	1,4772E02
856,45	1,5181E02
856,76	1,5510E02
857,07	1,5239E02
857,39	1,5088E02
857,70	1,5160E02
858,01	1,4779E02
858,32	1,4978E02
858,63	1,4694E02
858,94	1,5122E02
859,25	1,5047E02
859,57	1,5201E02
859,88	1,5338E02
860,19	1,5000E02
860,50	1,4933E02
860,81	1,5035E02
861,12	1,5101E02
861,43	1,5407E02
861,74	1,4946E02
862,05	1,5186E02
862,36	1,5509E02
862,67	1,5528E02
862,99	1,5440E02
863,30	1,5303E02
863,61	1,5357E02
863,92	1,5243E02
864,23	1,5496E02
864,54	1,5494E02
864,85	1,5467E02
865,16	1,5414E02
865,47	1,5532E02
865,78	1,4981E02
866,09	1,5181E02
866,40	1,5077E02
866,71	1,5279E02
867,02	1,5314E02
867,33	1,5143E02
867,64	1,5103E02
867,95	1,5590E02
868,26	1,5258E02
868,57	1,4984E02
868,88	1,4888E02
869,19	1,5525E02
869,50	1,5442E02
869,81	1,5020E02
870,12	1,5145E02
870,42	1,5325E02
870,73	1,5077E02
871,04	1,5400E02
871,35	1,5356E02
871,66	1,5309E02
871,97	1,5130E02
872,28	1,4908E02
872,59	1,5300E02
872,90	1,4542E02
873,21	1,5078E02
873,52	1,5040E02
873,82	1,5367E02
874,13	1,5482E02
874,44	1,5426E02
874,75	1,4899E02
875,06	1,5202E02
875,37	1,5120E02
875,68	1,5080E02
875,98	1,5046E02
876,29	1,5260E02
876,60	1,5217E02
876,91	1,5533E02
877,22	1,4858E02
877,52	1,4858E02
877,83	1,5032E02
878,14	1,4939E02
878,45	1,4805E02
878,76	1,5280E02
879,06	1,5215E02
879,37	1,5060E02
879,68	1,4738E02
879,99	1,5187E02
880,30	1,5045E02
880,60	1,4995E02
880,91	1,4953E02
881,22	1,5292E02
881,53	1,5260E02
881,83	1,5482E02
882,14	1,5401E02
882,45	1,5418E02
882,75	1,5323E02
883,06	1,5395E02
883,37	1,5795E02
883,68	1,5719E02
883,98	1,5428E02
884,29	1,5867E02
884,60	1,5908E02
884,90	1,5783E02
885,21	1,5372E02
885,52	1,5473E02
885,82	1,5933E02
886,13	1,5903E02
886,44	1,5912E02
886,74	1,6200E02
887,05	1,5367E02
887,36	1,6048E02
887,66	1,5527E02
887,97	1,5500E02
888,27	1,6327E02
888,58	1,5815E02
888,89	1,5996E02
889,19	1,6260E02
889,50	1,5824E02
889,80	1,5909E02
890,11	1,6389E02
890,42	1,5832E02
890,72	1,6189E02
891,03	1,5892E02
891,33	1,6101E02
891,64	1,6145E02
891,94	1,6395E02
892,25	1,6280E02
892,56	1,6192E02
892,86	1,6480E02
893,17	1,6217E02
893,47	1,6115E02
893,78	1,6288E02
894,08	1,6192E02
894,39	1,6345E02
894,69	1,6239E02
895,00	1,6453E02
895,30	1,6105E02
895,61	1,6256E02
895,91	1,6231E02
896,22	1,6168E02
896,52	1,6279E02
896,83	1,6342E02
897,13	1,5929E02
897,43	1,6086E02
897,74	1,6438E02
898,04	1,6070E02
898,35	1,5880E02
898,65	1,6187E02
898,96	1,6250E02
899,26	1,5893E02
899,57	1,6133E02
899,87	1,6191E02
900,17	1,5727E02
900,48	1,5828E02
900,78	1,6270E02
901,09	1,6100E02
901,39	1,5897E02
901,69	1,6427E02
902,00	1,6260E02
902,30	1,6155E02
902,60	1,6101E02
902,91	1,5839E02
903,21	1,6229E02
903,51	1,5834E02
903,82	1,5740E02
904,12	1,5803E02
904,42	1,5673E02
904,73	1,5945E02
905,03	1,5643E02
905,33	1,5986E02
905,64	1,5288E02
905,94	1,5243E02
906,24	1,5542E02
906,55	1,5399E02
906,85	1,6052E02
907,15	1,5747E02
907,45	1,5390E02
907,76	1,5717E02
908,06	1,5483E02
908,36	1,6045E02
908,66	1,5494E02
908,97	1,5284E02
909,27	1,5989E02
909,57	1,5441E02
909,87	1,5716E02
910,18	1,5373E02
910,48	1,5242E02
910,78	1,5831E02
911,08	1,5485E02
911,39	1,5101E02
911,69	1,5242E02
911,99	1,5348E02
912,29	1,5208E02
912,59	1,5157E02
912,89	1,5557E02
913,20	1,5403E02
913,50	1,4957E02
913,80	1,4731E02
914,10	1,4629E02
914,40	1,4790E02
914,70	1,5144E02
915,01	1,4880E02
915,31	1,4599E02
915,61	1,4662E02
915,91	1,4992E02
916,21	1,4638E02
916,51	1,4579E02
916,81	1,4942E02
917,11	1,4781E02
917,41	1,5277E02
917,72	1,4701E02
918,02	1,4956E02
918,32	1,4658E02
918,62	1,4280E02
918,92	1,5391E02
919,22	1,4749E02
919,52	1,4824E02
919,82	1,4682E02
920,12	1,4793E02
920,42	1,4708E02
920,72	1,4939E02
921,02	1,4848E02
921,32	1,4563E02
921,62	1,4589E02
921,92	1,4836E02
922,22	1,4073E02
922,52	1,4388E02
922,82	1,4311E02
923,12	1,4276E02
923,42	1,4292E02
923,72	1,5145E02
924,02	1,4235E02
924,32	1,4145E02
924,62	1,4931E02
924,92	1,5112E02
925,22	1,5165E02
925,52	1,4547E02
925,82	1,4826E02
926,12	1,4574E02
926,42	1,4467E02
926,72	1,4201E02
927,02	1,4540E02
927,31	1,4360E02
927,61	1,4481E02
927,91	1,3936E02
928,21	1,4091E02
928,51	1,4196E02
928,81	1,4143E02
929,11	1,4102E02
929,41	1,3796E02
929,71	1,3904E02
930,00	1,3885E02
930,30	1,4156E02
930,60	1,3724E02
930,90	1,3934E02
931,20	1,3490E02
931,50	1,4000E02
931,79	1,3160E02
932,09	1,4072E02
932,39	1,2861E02
932,69	1,3197E02
932,99	1,3295E02
933,29	1,3197E02
933,58	1,2794E02
933,88	1,2896E02
934,18	1,2545E02
934,48	1,2371E02
934,77	1,2086E02
935,07	1,2479E02
935,37	1,1986E02
935,67	1,1735E02
935,97	1,2080E02
936,26	1,1844E02
936,56	1,1610E02
936,86	1,1737E02
937,15	1,1484E02
937,45	1,2424E02
937,75	1,2115E02
938,05	1,1182E02
938,34	1,2072E02
938,64	1,1817E02
938,94	1,2855E02
939,23	1,1976E02
939,53	1,1825E02
939,83	1,2143E02
940,12	1,1990E02
940,42	1,1012E02
940,72	1,1898E02
941,01	1,2863E02
941,31	1,2706E02
941,61	1,2160E02
941,90	1,3424E02
942,20	1,2677E02
942,50	1,2936E02
942,79	1,4204E02
943,09	1,4184E02
943,38	1,4588E02
943,68	1,3726E02
943,98	1,4617E02
944,27	1,3766E02
944,57	1,4017E02
944,86	1,4957E02
945,16	1,3977E02
945,46	1,5633E02
945,75	1,3924E02
946,05	1,4050E02
946,34	1,4859E02
946,64	1,4230E02
946,93	1,4471E02
947,23	1,4270E02
947,52	1,5099E02
947,82	1,5312E02
948,12	1,5655E02
948,41	1,5525E02
948,71	1,4620E02
949,00	1,5344E02
949,30	1,4923E02
949,59	1,3906E02
949,89	1,5682E02
950,18	1,5122E02
950,48	1,4861E02
950,77	1,5941E02
951,06	1,4723E02
951,36	1,5128E02
951,65	1,5944E02
951,95	1,4328E02
952,24	1,3881E02
952,54	1,4946E02
952,83	1,5312E02
953,13	1,5532E02
953,42	1,5220E02
953,71	1,4813E02
954,01	1,4791E02
954,30	1,5789E02
954,60	1,5323E02
954,89	1,5254E02
955,18	1,4381E02
955,48	1,5509E02
955,77	1,5221E02
956,07	1,4872E02
956,36	1,4959E02
956,65	1,4591E02
956,95	1,5308E02
957,24	1,6552E02
957,53	1,5027E02
957,83	1,5870E02
958,12	1,5104E02
958,41	1,4901E02
958,71	1,5156E02
959,00	1,3968E02
959,29	1,5179E02
959,59	1,5085E02
959,88	1,3961E02
960,17	1,5588E02
960,46	1,4595E02
960,76	1,4912E02
961,05	1,4125E02
961,34	1,5412E02
961,64	1,3777E02
961,93	1,3138E02
962,22	1,4439E02
962,51	1,4981E02
962,81	1,3276E02
963,10	1,5300E02
963,39	1,4598E02
963,68	1,3452E02
963,97	1,4246E02
964,27	1,3130E02
964,56	1,4837E02
964,85	1,4969E02
965,14	1,4306E02
965,43	1,5214E02
965,73	1,4402E02
966,02	1,3013E02
966,31	1,2976E02
966,60	1,4499E02
966,89	1,3749E02
967,19	1,3080E02
967,48	1,3718E02
967,77	1,4113E02
968,06	1,3058E02
968,35	1,4301E02
968,64	1,4166E02
968,93	1,3822E02
969,22	1,3899E02
969,52	1,3763E02
969,81	1,3797E02
970,10	1,2603E02
970,39	1,3973E02
970,68	1,2717E02
970,97	1,4005E02
971,26	1,3795E02
971,55	1,4224E02
971,84	1,2802E02
972,13	1,4199E02
972,42	1,3745E02
972,71	1,2296E02
973,01	1,2835E02
973,30	1,2406E02
973,59	1,5234E02
973,88	1,3845E02
974,17	1,3627E02
974,46	1,3858E02
974,75	1,4636E02
975,04	1,1538E02
975,33	1,2837E02
975,62	1,2965E02
975,91	1,2298E02
976,20	1,2645E02
976,49	1,2991E02
976,78	1,2543E02
977,07	1,3301E02
977,36	1,2448E02
977,64	1,3155E02
977,93	1,3835E02
978,22	1,3950E02
978,51	1,4109E02
978,80	1,3059E02
979,09	1,2686E02
979,38	1,3011E02
979,67	1,1729E02
979,96	1,2619E02
980,25	1,2290E02
980,54	1,3234E02
980,83	1,2660E02
981,12	1,4001E02
981,40	1,1363E02
981,69	1,3836E02
981,98	1,2916E02
982,27	9,9042E01
982,56	1,1129E02
982,85	1,1917E02
983,14	1,3410E02
983,42	1,1982E02
983,71	1,2324E02
984,00	1,2677E02
984,29	1,2915E02
984,58	1,2621E02
984,87	1,1423E02
985,15	1,2665E02
985,44	1,1332E02
985,73	1,1388E02
986,02	1,2887E02
986,31	1,4001E02
986,59	1,1024E02
986,88	1,1276E02
987,17	1,1719E02
987,46	1,0534E02
987,74	1,1962E02
988,03	1,0880E02
988,32	7,5806E01
988,61	1,1671E02
988,89	1,1384E02
989,18	1,1296E02
989,47	1,2065E02
989,76	1,1135E02
990,04	1,1602E02
990,33	1,0360E02
990,62	1,1746E02
990,90	1,1759E02
991,19	1,0722E02
991,48	1,2048E02
991,76	1,0711E02
992,05	1,1659E02
992,34	1,1785E02
992,62	9,6649E01
992,91	1,1417E02
993,20	1,2743E02
993,48	9,5907E01
993,77	1,1777E02
994,06	9,2253E01
994,34	1,0028E02
994,63	1,0657E02
994,92	1,0052E02
995,20	1,1299E02
995,49	9,3311E01
995,77	9,0145E01
996,06	1,3297E02
996,35	1,0517E02
996,63	1,1970E02
996,92	7,2982E01
997,20	9,8582E01
997,49	9,1983E01
997,77	8,6904E01
998,06	6,9747E01
998,34	1,1863E02
998,63	8,4740E01
998,92	1,0788E02
999,20	8,3916E01
999,49	5,5141E01
999,77	8,4306E01
1000,06	7,9432E01
1000,34	1,1339E02
1000,63	8,2601E01
1000,91	8,8796E01
1001,20	7,2243E01
1001,48	8,9981E01
1001,77	6,9424E01
1002,05	9,4899E01
1002,34	7,7731E01
1002,62	8,3476E01
1002,90	8,0490E01
1003,19	8,2464E01
1003,47	5,9867E01
1003,76	1,0518E02
1004,04	6,3769E01
1004,33	5,0249E01
1004,61	1,0286E02
1004,89	7,2468E01
1005,18	8,9759E01
1005,46	5,2953E01
1005,75	5,4219E01
1006,03	4,1235E01
1006,31	6,3880E01
1006,60	6,7307E01
1006,88	5,8486E01
1007,17	7,0769E01
1007,45	5,5156E01
1007,73	8,2089E01
1008,02	6,3081E01
1008,30	5,3642E01
1008,58	8,3680E01
1008,87	4,3838E01
1009,15	4,8182E01
1009,43	6,6196E01
1009,72	9,1291E01
1010,00	5,3018E01
1010,28	6,0298E01
1010,57	7,6714E01
1010,85	3,4500E01
1011,13	4,0819E01
1011,41	5,3325E01
1011,70	6,4335E01
1011,98	5,2683E01
1012,26	5,7677E01
1012,55	7,0057E01
1012,83	6,7103E01
1013,11	6,5088E01
1013,39	3,9762E01
1013,68	-1,2158E01
1013,96	2,8384E01
1014,24	8,3217E01
1014,52	-1,9313E00
1014,80	4,4887E01
1015,09	3,8514E01
1015,37	3,9988E01
1015,65	1,6155E01
1015,93	5,1191E00
1016,21	3,3179E01
1016,50	5,0353E01
1016,78	3,2887E01
1017,06	4,0764E01
1017,34	9,7770E00
1017,62	1,4323E01
1017,90	-5,5782E00
1018,19	4,8466E01
1018,47	1,1416E01
1018,75	6,4655E01
1019,03	1,8670E01
1019,31	-1,6503E01
1019,59	-2,8635E01
1019,87	1,4482E01
1020,15	-2,3168E01
1020,44	-2,0942E01
1020,72	-2,9864E01
1021,00	-2,2643E01
1021,28	-2,5475E00
1021,56	-2,5726E01
1021,84	-5,4679E01
1022,12	-3,6842E01
1022,40	-6,7867E01
1022,68	-1,7483E01
1022,96	-6,7805E00
1023,24	-6,6271E01
1023,52	-9,9048E00
1023,80	-9,9101E00
1024,08	-9,9101E00
>>>>>End Processed Spectral Data<<<<<
