SpectraSuite Datei
++++++++++++++++++++++++++++++++++++
Datum: Thu Jan 20 12:11:38 CET 2022
Benutzer: RMV
Dark-Spektrum vorhanden: Ja
Referenz-Spektrum vorhanden: Nein
Zahl der probierten Teilspektren: 1
Spektrometer: USB2+H07983
Integrationszeit (usec): 3170 (USB2+H07983)
Spektren Durchschnitt berechnet: 1 (USB2+H07983)
Boxcar Glättung: 0 (USB2+H07983)
Dunkelstromkorrektur: Nein (USB2+H07983)
Puls/Lampe aktiviert: Nein (USB2+H07983)
Correct for Detector Non-linearity: Nein (USB2+H07983)
Streulichtkorrektur: Nein (USB2+H07983)
Anzahl Pixel in verarbeitetem Spektrum: 2048
>>>>>Begin Processed Spectral Data<<<<<
339,47	-0,0000E00
339,85	-0,0000E00
340,24	-0,0000E00
340,62	-0,0000E00
341,01	-0,0000E00
341,39	-0,0000E00
341,77	-0,0000E00
342,16	-0,0000E00
342,54	-0,0000E00
342,92	-0,0000E00
343,31	-0,0000E00
343,69	-0,0000E00
344,07	-0,0000E00
344,46	-0,0000E00
344,84	-0,0000E00
345,22	-0,0000E00
345,61	-0,0000E00
345,99	-0,0000E00
346,37	-0,0000E00
346,76	-0,0000E00
347,14	-0,0000E00
347,52	-0,0000E00
347,91	-0,0000E00
348,29	-0,0000E00
348,67	-6,1088E00
349,05	-4,7484E00
349,44	-6,0192E00
349,82	-6,4078E00
350,20	-5,3632E00
350,59	-3,6065E00
350,97	-4,5475E00
351,35	-4,1853E00
351,73	-4,0726E00
352,12	-3,4807E00
352,50	-4,8574E00
352,88	-4,0214E00
353,26	-3,9820E00
353,65	-4,0821E00
354,03	-4,0608E00
354,41	-4,5117E00
354,79	-3,3746E00
355,17	-4,3796E00
355,56	-3,6245E00
355,94	-3,3648E00
356,32	-3,8817E00
356,70	-3,9839E00
357,08	-3,7783E00
357,47	-3,4226E00
357,85	-4,6269E00
358,23	-4,4067E00
358,61	-4,5284E00
358,99	-5,2819E00
359,38	-4,1168E00
359,76	-4,1513E00
360,14	-5,8086E00
360,52	-4,1233E00
360,90	-3,8083E00
361,28	-3,8940E00
361,66	-4,8256E00
362,05	-3,7581E00
362,43	-4,1200E00
362,81	-4,9738E00
363,19	-3,8735E00
363,57	-3,5398E00
363,95	-3,9933E00
364,33	-4,7691E00
364,71	-3,8505E00
365,10	-4,3376E00
365,48	-5,1971E00
365,86	-4,6715E00
366,24	-3,7762E00
366,62	-4,2350E00
367,00	-3,6013E00
367,38	-2,9739E00
367,76	-4,4936E00
368,14	-4,6746E00
368,52	-3,9316E00
368,90	-3,9836E00
369,28	-5,0617E00
369,66	-4,0772E00
370,04	-5,0840E00
370,42	-4,6841E00
370,81	-5,2710E00
371,19	-5,4037E00
371,57	-4,3696E00
371,95	-3,6813E00
372,33	-4,2328E00
372,71	-4,2875E00
373,09	-4,2944E00
373,47	-3,0240E00
373,85	-3,3293E00
374,23	-3,8864E00
374,61	-4,8834E00
374,99	-3,2934E00
375,37	-3,8497E00
375,75	-3,9793E00
376,13	-3,7467E00
376,51	-2,3032E00
376,88	-3,4112E00
377,26	-3,9347E00
377,64	-3,5579E00
378,02	-3,4595E00
378,40	-3,1904E00
378,78	-4,2741E00
379,16	-4,0222E00
379,54	-3,3534E00
379,92	-3,4007E00
380,30	-3,8943E00
380,68	-3,4175E00
381,06	-4,4957E00
381,44	-3,8343E00
381,82	-3,3232E00
382,20	-3,2421E00
382,57	-2,8965E00
382,95	-3,1862E00
383,33	-3,2388E00
383,71	-3,3745E00
384,09	-4,4719E00
384,47	-3,3619E00
384,85	-3,6802E00
385,23	-3,4302E00
385,60	-3,5464E00
385,98	-2,3501E00
386,36	-2,9863E00
386,74	-3,8406E00
387,12	-2,7715E00
387,50	-2,6307E00
387,88	-3,1599E00
388,25	-3,2046E00
388,63	-2,4664E00
389,01	-2,7401E00
389,39	-3,4023E00
389,77	-3,1886E00
390,14	-3,7668E00
390,52	-2,7458E00
390,90	-2,8020E00
391,28	-2,8869E00
391,66	-3,6760E00
392,03	-3,2411E00
392,41	-3,1988E00
392,79	-2,5709E00
393,17	-3,4247E00
393,54	-2,8724E00
393,92	-3,0004E00
394,30	-2,9858E00
394,68	-2,8260E00
395,06	-2,6764E00
395,43	-2,7862E00
395,81	-2,3262E00
396,19	-2,2716E00
396,56	-2,7080E00
396,94	-2,4254E00
397,32	-3,2234E00
397,70	-2,3842E00
398,07	-2,6402E00
398,45	-2,3270E00
398,83	-2,3866E00
399,20	-1,8945E00
399,58	-2,7766E00
399,96	-2,1127E00
400,34	-3,3792E00
400,71	-2,6006E00
401,09	-2,5154E00
401,47	-2,5697E00
401,84	-2,5439E00
402,22	-2,7686E00
402,60	-2,3464E00
402,97	-2,3634E00
403,35	-2,2761E00
403,73	-1,9222E00
404,10	-2,6862E00
404,48	-2,9457E00
404,85	-2,6755E00
405,23	-2,2677E00
405,61	-3,1868E00
405,98	-2,7450E00
406,36	-2,6418E00
406,74	-2,8578E00
407,11	-1,7312E00
407,49	-2,7628E00
407,86	-2,7391E00
408,24	-1,7696E00
408,62	-2,4317E00
408,99	-2,1285E00
409,37	-2,8418E00
409,74	-2,3215E00
410,12	-2,2822E00
410,49	-1,6919E00
410,87	-2,8550E00
411,25	-2,0900E00
411,62	-2,4923E00
412,00	-1,7355E00
412,37	-2,2158E00
412,75	-3,0558E00
413,12	-2,1668E00
413,50	-2,8344E00
413,87	-2,5447E00
414,25	-2,0039E00
414,62	-2,1580E00
415,00	-2,1539E00
415,37	-1,6579E00
415,75	-1,9454E00
416,12	-2,4191E00
416,50	-2,2026E00
416,87	-1,3079E00
417,25	-1,8770E00
417,62	-2,4158E00
418,00	-2,2758E00
418,37	-2,4660E00
418,75	-2,1251E00
419,12	-2,3251E00
419,50	-1,9259E00
419,87	-2,4107E00
420,25	-2,0787E00
420,62	-2,0326E00
420,99	-1,9063E00
421,37	-2,1060E00
421,74	-2,3329E00
422,12	-4,4557E00
422,49	-1,8925E00
422,87	-1,6741E00
423,24	-2,0400E00
423,61	-1,2564E00
423,99	-1,7293E00
424,36	-1,6615E00
424,74	-1,8767E00
425,11	-1,5817E00
425,48	-2,2838E00
425,86	-1,6454E00
426,23	-1,8345E00
426,60	-2,2242E00
426,98	-1,9875E00
427,35	-1,7407E00
427,73	-2,0882E00
428,10	-1,6577E00
428,47	-1,2871E00
428,85	-1,5062E00
429,22	-1,5353E00
429,59	-1,1575E00
429,97	-1,9001E00
430,34	-1,9169E00
430,71	-1,5051E00
431,09	-1,8230E00
431,46	-1,2544E00
431,83	-2,0399E00
432,21	-1,9697E00
432,58	-1,6167E00
432,95	-1,7978E00
433,32	-1,7306E00
433,70	-1,3528E00
434,07	-1,8758E00
434,44	-1,3380E00
434,82	-1,7136E00
435,19	-1,5201E00
435,56	-1,6826E00
435,93	-1,3962E00
436,31	-1,7746E00
436,68	-1,8956E00
437,05	-1,7053E00
437,42	-2,0354E00
437,80	-1,5023E00
438,17	-1,9040E00
438,54	-1,9276E00
438,91	-1,5157E00
439,28	-1,9434E00
439,66	-1,3894E00
440,03	-1,4134E00
440,40	-1,5069E00
440,77	-1,7130E00
441,14	-1,4439E00
441,52	-1,2864E00
441,89	-1,5103E00
442,26	-1,2933E00
442,63	-1,4448E00
443,00	-1,3398E00
443,38	-1,5895E00
443,75	-1,4377E00
444,12	-1,6464E00
444,49	-1,6119E00
444,86	-1,5776E00
445,23	-1,5919E00
445,60	-1,1347E00
445,98	-1,7630E00
446,35	-1,4506E00
446,72	-1,6265E00
447,09	-1,0693E00
447,46	-1,6578E00
447,83	-1,7145E00
448,20	-1,2016E00
448,57	-1,1786E00
448,94	-1,7528E00
449,32	-1,5977E00
449,69	-1,3168E00
450,06	-1,3679E00
450,43	-1,5216E00
450,80	-1,3000E00
451,17	-1,0163E00
451,54	-1,2678E00
451,91	-8,9534E-01
452,28	-1,3753E00
452,65	-9,6792E-01
453,02	-1,0673E00
453,39	-1,5005E00
453,76	-1,4828E00
454,13	-9,9382E-01
454,50	-1,6980E00
454,87	-1,3996E00
455,24	-1,5626E00
455,61	-1,0847E00
455,98	-1,2919E00
456,35	-1,5606E00
456,72	-1,3499E00
457,09	-1,4299E00
457,46	-8,8863E-01
457,83	-1,4578E00
458,20	-1,5247E00
458,57	-1,2691E00
458,94	-1,1146E00
459,31	-1,2498E00
459,68	-1,2267E00
460,05	-1,5260E00
460,42	-1,2497E00
460,79	-1,2525E00
461,16	-1,2880E00
461,53	-1,2302E00
461,90	-1,0981E00
462,27	-1,1947E00
462,64	-1,3518E00
463,01	-9,6717E-01
463,38	-1,0140E00
463,75	-1,2349E00
464,12	-1,4291E00
464,48	-1,1325E00
464,85	-1,3083E00
465,22	-1,2121E00
465,59	-1,5080E00
465,96	-1,2966E00
466,33	-1,1601E00
466,70	-1,1295E00
467,07	-1,3577E00
467,44	-1,0405E00
467,80	-7,8943E-01
468,17	-1,3177E00
468,54	-1,3419E00
468,91	-1,1476E00
469,28	-1,2720E00
469,65	-1,3325E00
470,02	-1,0114E00
470,38	-1,0791E00
470,75	-1,2262E00
471,12	-1,0878E00
471,49	-1,2537E00
471,86	-9,2973E-01
472,22	-7,8501E-01
472,59	-8,7754E-01
472,96	-1,0454E00
473,33	-7,2000E-01
473,70	-9,6073E-01
474,06	-9,9215E-01
474,43	-5,9670E-01
474,80	-7,9262E-01
475,17	-9,8262E-01
475,54	-9,0708E-01
475,90	-6,4473E-01
476,27	-7,1609E-01
476,64	-7,6105E-01
477,01	-5,8295E-01
477,37	-7,3513E-01
477,74	-6,2246E-01
478,11	-7,3911E-01
478,48	-9,9870E-01
478,84	-6,3866E-01
479,21	-6,9210E-01
479,58	-4,0674E-01
479,94	-5,2377E-01
480,31	-5,9210E-01
480,68	-3,7467E-01
481,05	-4,9938E-01
481,41	-3,7074E-01
481,78	-3,7194E-01
482,15	-1,8928E-01
482,51	-2,7280E-01
482,88	-2,3247E-01
483,25	-1,5673E-01
483,61	-9,8213E-02
483,98	-2,0474E-02
484,35	-5,5736E-02
484,71	-1,5550E-01
485,08	1,1415E-01
485,45	-9,8337E-03
485,81	1,1687E-01
486,18	-1,4457E-02
486,54	6,6808E-02
486,91	2,8380E-02
487,28	5,1557E-01
487,64	3,4850E-01
488,01	2,9013E-01
488,38	4,3354E-01
488,74	4,5249E-01
489,11	5,1614E-01
489,47	6,9020E-01
489,84	6,2756E-01
490,20	7,8568E-01
490,57	5,7554E-01
490,94	8,8792E-01
491,30	8,0872E-01
491,67	1,0596E00
492,03	1,1124E00
492,40	1,1558E00
492,76	1,3745E00
493,13	1,3289E00
493,50	1,5817E00
493,86	1,5924E00
494,23	1,7264E00
494,59	2,0491E00
494,96	2,1009E00
495,32	2,1936E00
495,69	2,3894E00
496,05	2,3953E00
496,42	2,4739E00
496,78	2,9286E00
497,15	2,9665E00
497,51	3,1057E00
497,88	3,3286E00
498,24	3,4033E00
498,61	3,6706E00
498,97	3,8946E00
499,34	4,1072E00
499,70	4,4277E00
500,06	4,7765E00
500,43	5,0297E00
500,79	5,2368E00
501,16	5,4185E00
501,52	5,8827E00
501,89	6,0160E00
502,25	6,5337E00
502,62	7,0363E00
502,98	7,2454E00
503,34	7,8780E00
503,71	8,0689E00
504,07	8,2778E00
504,44	8,8209E00
504,80	9,4799E00
505,16	9,4816E00
505,53	1,0158E01
505,89	1,0783E01
506,26	1,1222E01
506,62	1,2143E01
506,98	1,2404E01
507,35	1,2725E01
507,71	1,3488E01
508,07	1,4174E01
508,44	1,4977E01
508,80	1,5349E01
509,16	1,6281E01
509,53	1,6719E01
509,89	1,7639E01
510,25	1,8139E01
510,62	1,8799E01
510,98	1,9628E01
511,34	2,0772E01
511,71	2,0854E01
512,07	2,1842E01
512,43	2,2850E01
512,80	2,3411E01
513,16	2,3596E01
513,52	2,4829E01
513,88	2,5498E01
514,25	2,6063E01
514,61	2,6909E01
514,97	2,7517E01
515,33	2,8724E01
515,70	2,9152E01
516,06	2,9985E01
516,42	3,0859E01
516,78	3,0975E01
517,15	3,1322E01
517,51	3,2179E01
517,87	3,2795E01
518,23	3,3359E01
518,60	3,4105E01
518,96	3,4475E01
519,32	3,5235E01
519,68	3,5245E01
520,04	3,5517E01
520,41	3,6588E01
520,77	3,6456E01
521,13	3,6338E01
521,49	3,6564E01
521,85	3,6830E01
522,22	3,7458E01
522,58	3,7287E01
522,94	3,7032E01
523,30	3,7365E01
523,66	3,7054E01
524,02	3,7213E01
524,38	3,7207E01
524,75	3,6512E01
525,11	3,6779E01
525,47	3,6297E01
525,83	3,5964E01
526,19	3,5625E01
526,55	3,5300E01
526,91	3,4950E01
527,27	3,4649E01
527,64	3,4015E01
528,00	3,3397E01
528,36	3,2723E01
528,72	3,2447E01
529,08	3,2060E01
529,44	3,1799E01
529,80	3,0685E01
530,16	3,0399E01
530,52	2,9122E01
530,88	2,8888E01
531,24	2,9057E01
531,60	2,8445E01
531,96	2,7926E01
532,32	2,7025E01
532,68	2,7025E01
533,04	2,5511E01
533,40	2,5785E01
533,77	2,4935E01
534,13	2,4708E01
534,49	2,3676E01
534,85	2,3275E01
535,21	2,3322E01
535,57	2,2532E01
535,93	2,2311E01
536,29	2,1062E01
536,65	2,1221E01
537,00	2,0344E01
537,36	2,0546E01
537,72	1,9939E01
538,08	1,9623E01
538,44	1,9402E01
538,80	1,8933E01
539,16	1,8162E01
539,52	1,7898E01
539,88	1,7893E01
540,24	1,7401E01
540,60	1,6915E01
540,96	1,6696E01
541,32	1,6269E01
541,68	1,5530E01
542,04	1,5452E01
542,40	1,5397E01
542,75	1,4903E01
543,11	1,4621E01
543,47	1,4242E01
543,83	1,3604E01
544,19	1,3819E01
544,55	1,3693E01
544,91	1,3060E01
545,27	1,2930E01
545,63	1,2600E01
545,98	1,2450E01
546,34	1,1868E01
546,70	1,1817E01
547,06	1,1667E01
547,42	1,1160E01
547,78	1,1209E01
548,13	1,0775E01
548,49	1,0274E01
548,85	1,0169E01
549,21	9,8447E00
549,57	9,9617E00
549,93	9,6803E00
550,28	9,2374E00
550,64	9,0489E00
551,00	8,8540E00
551,36	8,3979E00
551,71	8,3358E00
552,07	8,1336E00
552,43	7,9061E00
552,79	7,3965E00
553,15	7,3057E00
553,50	7,3822E00
553,86	7,0320E00
554,22	6,8638E00
554,58	6,7461E00
554,93	6,6462E00
555,29	6,4572E00
555,65	6,1646E00
556,01	6,1594E00
556,36	5,8200E00
556,72	5,5971E00
557,08	5,5665E00
557,43	5,4246E00
557,79	5,0888E00
558,15	4,8714E00
558,50	4,8181E00
558,86	4,9175E00
559,22	4,9927E00
559,58	4,7307E00
559,93	4,4519E00
560,29	4,3450E00
560,65	3,9536E00
561,00	3,9158E00
561,36	3,9293E00
561,71	3,7958E00
562,07	3,5703E00
562,43	3,9200E00
562,78	3,6128E00
563,14	3,3973E00
563,50	3,4648E00
563,85	3,1979E00
564,21	3,1510E00
564,57	2,8917E00
564,92	2,9328E00
565,28	2,8634E00
565,63	2,8731E00
565,99	2,6923E00
566,35	2,5873E00
566,70	2,8350E00
567,06	2,4775E00
567,41	2,5541E00
567,77	2,4793E00
568,12	2,3004E00
568,48	2,1116E00
568,83	2,2422E00
569,19	2,1038E00
569,55	2,0073E00
569,90	1,9731E00
570,26	2,0341E00
570,61	1,5603E00
570,97	1,6954E00
571,32	1,6874E00
571,68	1,5265E00
572,03	1,5998E00
572,39	1,5401E00
572,74	1,4764E00
573,10	1,4082E00
573,45	1,3162E00
573,81	1,5242E00
574,16	1,2774E00
574,52	1,0728E00
574,87	1,3059E00
575,23	1,0613E00
575,58	1,0710E00
575,94	1,0850E00
576,29	1,0110E00
576,64	9,4447E-01
577,00	8,2537E-01
577,35	9,2809E-01
577,71	9,2202E-01
578,06	8,1849E-01
578,42	6,6608E-01
578,77	7,2850E-01
579,12	6,1979E-01
579,48	6,9868E-01
579,83	7,0824E-01
580,19	5,5369E-01
580,54	5,7131E-01
580,89	4,3255E-01
581,25	4,7439E-01
581,60	5,2487E-01
581,96	4,5131E-01
582,31	2,8614E-01
582,66	4,3202E-01
583,02	2,0392E-01
583,37	1,9176E-01
583,72	1,1700E-01
584,08	1,8838E-01
584,43	2,1807E-01
584,78	2,4365E-01
585,14	1,3470E-01
585,49	2,5725E-01
585,84	1,6905E-01
586,20	5,0829E-02
586,55	1,8255E-01
586,90	1,5313E-01
587,26	4,6880E-02
587,61	2,7332E-01
587,96	1,1556E-01
588,32	1,5438E-01
588,67	4,2968E-02
589,02	7,7500E-02
589,37	-1,6392E-01
589,73	3,0246E-02
590,08	-2,0780E-01
590,43	-2,1690E-02
590,78	9,1275E-02
591,14	-7,8372E-02
591,49	-2,6593E-01
591,84	-8,2989E-02
592,19	-1,7068E-01
592,55	-2,3235E-01
592,90	-2,2387E-01
593,25	-2,0230E-01
593,60	-3,8759E-01
593,96	-2,6902E-01
594,31	-1,1040E-01
594,66	-2,9188E-01
595,01	-2,0377E-01
595,36	-2,5283E-01
595,72	-1,9541E-01
596,07	-3,7340E-01
596,42	-3,4271E-01
596,77	-2,4965E-01
597,12	-4,1523E-01
597,47	-3,2200E-01
597,83	-3,7171E-01
598,18	-3,9889E-01
598,53	-4,5312E-01
598,88	-3,6382E-01
599,23	-4,7674E-01
599,58	-3,2871E-01
599,93	-5,1397E-01
600,29	-5,1460E-01
600,64	-3,1181E-01
600,99	-2,6681E-01
601,34	-3,3046E-01
601,69	-5,3905E-01
602,04	-4,2672E-01
602,39	-3,3174E-01
602,74	-5,4166E-01
603,09	-5,1505E-01
603,44	-3,9254E-01
603,80	-3,7021E-01
604,15	-4,6677E-01
604,50	-3,8493E-01
604,85	-4,0857E-01
605,20	-4,0478E-01
605,55	-2,2578E-01
605,90	-7,1026E-01
606,25	-5,7295E-01
606,60	-4,9518E-01
606,95	-6,9529E-01
607,30	-6,3595E-01
607,65	-5,6273E-01
608,00	-6,4756E-01
608,35	-5,3683E-01
608,70	-6,5455E-01
609,05	-6,4151E-01
609,40	-4,5989E-01
609,75	-7,1465E-01
610,10	-5,6560E-01
610,45	-6,4694E-01
610,80	-6,3877E-01
611,15	-5,9246E-01
611,50	-4,4182E-01
611,85	-4,0947E-01
612,20	-5,7256E-01
612,55	-7,1257E-01
612,90	-6,6617E-01
613,25	-7,7321E-01
613,60	-6,4985E-01
613,95	-5,6938E-01
614,30	-5,2252E-01
614,64	-7,5180E-01
614,99	-7,6842E-01
615,34	-7,2651E-01
615,69	-8,1123E-01
616,04	-4,6563E-01
616,39	-7,7145E-01
616,74	-6,2070E-01
617,09	-6,8654E-01
617,44	-6,8330E-01
617,79	-8,0381E-01
618,13	-6,4663E-01
618,48	-6,5332E-01
618,83	-9,0550E-01
619,18	-9,3270E-01
619,53	-8,5984E-01
619,88	-6,8041E-01
620,23	-8,6933E-01
620,57	-9,7793E-01
620,92	-5,6388E-01
621,27	-7,1850E-01
621,62	-6,1819E-01
621,97	-8,3481E-01
622,32	-8,4761E-01
622,66	-7,5170E-01
623,01	-8,7770E-01
623,36	-9,8906E-01
623,71	-5,7113E-01
624,06	-6,5588E-01
624,40	-7,5695E-01
624,75	-8,5856E-01
625,10	-7,9254E-01
625,45	-6,7386E-01
625,80	-6,0682E-01
626,14	-6,8249E-01
626,49	-8,7027E-01
626,84	-6,6513E-01
627,19	-6,7234E-01
627,53	-7,9730E-01
627,88	-7,2439E-01
628,23	-6,5630E-01
628,57	-7,6619E-01
628,92	-8,8709E-01
629,27	-8,1338E-01
629,62	-8,4327E-01
629,96	-8,1783E-01
630,31	-7,7645E-01
630,66	-8,1119E-01
631,00	-9,1217E-01
631,35	-8,5385E-01
631,70	-7,9015E-01
632,05	-6,9259E-01
632,39	-7,8351E-01
632,74	-9,1380E-01
633,09	-7,9363E-01
633,43	-6,6130E-01
633,78	-7,3067E-01
634,12	-9,0159E-01
634,47	-1,0910E00
634,82	-9,2968E-01
635,16	-8,6406E-01
635,51	-7,6930E-01
635,86	-8,8018E-01
636,20	-9,9118E-01
636,55	-8,6172E-01
636,90	-8,4084E-01
637,24	-6,3540E-01
637,59	-1,1062E00
637,93	-8,0722E-01
638,28	-9,0806E-01
638,63	-9,6304E-01
638,97	-8,9550E-01
639,32	-9,5670E-01
639,66	-9,9453E-01
640,01	-7,5532E-01
640,35	-9,6479E-01
640,70	-7,2390E-01
641,04	-7,1370E-01
641,39	-8,1119E-01
641,74	-1,0882E00
642,08	-8,2141E-01
642,43	-6,3722E-01
642,77	-8,7382E-01
643,12	-1,0329E00
643,46	-1,0960E00
643,81	-1,0620E00
644,15	-1,0523E00
644,50	-9,3304E-01
644,84	-9,4127E-01
645,19	-1,1032E00
645,53	-9,0950E-01
645,88	-7,4548E-01
646,22	-9,5704E-01
646,57	-9,1005E-01
646,91	-1,0612E00
647,26	-1,2001E00
647,60	-8,4173E-01
647,94	-7,8761E-01
648,29	-1,1655E00
648,63	-9,6740E-01
648,98	-9,7565E-01
649,32	-8,1406E-01
649,67	-1,1007E00
650,01	-8,6871E-01
650,36	-8,7715E-01
650,70	-9,6226E-01
651,04	-1,1633E00
651,39	-1,1019E00
651,73	-9,4408E-01
652,08	-6,9540E-01
652,42	-1,0390E00
652,76	-1,0548E00
653,11	-1,0055E00
653,45	-1,3069E00
653,79	-1,1800E00
654,14	-9,2144E-01
654,48	-1,0936E00
654,83	-8,7954E-01
655,17	-1,0526E00
655,51	-1,0417E00
655,86	-9,7808E-01
656,20	-1,2057E00
656,54	-9,0290E-01
656,89	-1,1047E00
657,23	-9,3387E-01
657,57	-9,6293E-01
657,91	-1,0121E00
658,26	-9,0041E-01
658,60	-1,0642E00
658,94	-8,1694E-01
659,29	-1,0829E00
659,63	-6,9859E-01
659,97	-9,5905E-01
660,32	-9,8153E-01
660,66	-9,0835E-01
661,00	-1,3558E00
661,34	-1,2354E00
661,69	-8,3241E-01
662,03	-1,0071E00
662,37	-8,8501E-01
662,71	-9,2911E-01
663,06	-1,5009E00
663,40	-1,0033E00
663,74	-1,0194E00
664,08	-1,3236E00
664,42	-1,1732E00
664,77	-1,1900E00
665,11	-1,3623E00
665,45	-8,3528E-01
665,79	-1,1780E00
666,13	-1,0528E00
666,48	-1,0626E00
666,82	-7,7234E-01
667,16	-1,1259E00
667,50	-1,1792E00
667,84	-1,4490E00
668,18	-1,1271E00
668,53	-1,0358E00
668,87	-1,1548E00
669,21	-1,1143E00
669,55	-1,2557E00
669,89	-1,4649E00
670,23	-9,6948E-01
670,57	-1,0093E00
670,92	-1,6693E00
671,26	-1,2001E00
671,60	-1,5524E00
671,94	-1,2218E00
672,28	-1,2780E00
672,62	-1,0494E00
672,96	-1,2623E00
673,30	-1,0026E00
673,64	-7,6321E-01
673,98	-1,2049E00
674,33	-1,1551E00
674,67	-1,3186E00
675,01	-9,9388E-01
675,35	-9,1265E-01
675,69	-1,3308E00
676,03	-1,3268E00
676,37	-1,2301E00
676,71	-1,0942E00
677,05	-1,0662E00
677,39	-1,2337E00
677,73	-1,3158E00
678,07	-7,9357E-01
678,41	-1,2371E00
678,75	-1,0506E00
679,09	-1,5447E00
679,43	-1,3823E00
679,77	-1,0123E00
680,11	-1,0392E00
680,45	-1,2268E00
680,79	-1,3429E00
681,13	-1,2258E00
681,47	-1,5368E00
681,81	-1,0543E00
682,15	-1,2365E00
682,49	-1,3962E00
682,83	-1,4740E00
683,17	-1,7168E00
683,51	-1,2436E00
683,84	-1,2968E00
684,18	-1,3091E00
684,52	-1,1137E00
684,86	-1,5672E00
685,20	-1,3127E00
685,54	-1,1573E00
685,88	-1,0514E00
686,22	-1,2989E00
686,56	-1,4806E00
686,90	-1,2478E00
687,24	-1,3705E00
687,57	-1,3322E00
687,91	-9,4204E-01
688,25	-1,1082E00
688,59	-1,0168E00
688,93	-1,4087E00
689,27	-1,7162E00
689,61	-1,3913E00
689,94	-1,1424E00
690,28	-1,3032E00
690,62	-1,4642E00
690,96	-1,2140E00
691,30	-1,2879E00
691,64	-1,6636E00
691,97	-1,1358E00
692,31	-1,4771E00
692,65	-1,3385E00
692,99	-1,6022E00
693,33	-1,0766E00
693,66	-1,4847E00
694,00	-1,3442E00
694,34	-1,4660E00
694,68	-1,2970E00
695,01	-1,3644E00
695,35	-1,1857E00
695,69	-1,5547E00
696,03	-1,1369E00
696,36	-1,6639E00
696,70	-1,2076E00
697,04	-1,7108E00
697,38	-1,5578E00
697,71	-1,6369E00
698,05	-1,2215E00
698,39	-1,1693E00
698,72	-1,5854E00
699,06	-1,4955E00
699,40	-1,9339E00
699,74	-1,5522E00
700,07	-1,6138E00
700,41	-1,4281E00
700,75	-1,5087E00
701,08	-1,3312E00
701,42	-1,5943E00
701,76	-1,3104E00
702,09	-1,1796E00
702,43	-1,6488E00
702,77	-1,3624E00
703,10	-9,4669E-01
703,44	-1,7425E00
703,77	-1,7085E00
704,11	-1,5068E00
704,45	-1,6496E00
704,78	-1,5750E00
705,12	-1,7486E00
705,46	-1,6136E00
705,79	-1,8271E00
706,13	-1,4715E00
706,46	-1,5955E00
706,80	-1,7309E00
707,14	-1,7955E00
707,47	-1,5477E00
707,81	-1,4298E00
708,14	-1,6879E00
708,48	-1,6929E00
708,81	-1,6055E00
709,15	-1,7740E00
709,48	-1,3576E00
709,82	-1,2996E00
710,16	-1,0550E00
710,49	-1,8569E00
710,83	-1,2589E00
711,16	-1,6906E00
711,50	-1,7476E00
711,83	-1,5743E00
712,17	-1,6311E00
712,50	-1,4988E00
712,84	-1,8312E00
713,17	-1,5178E00
713,51	-1,4057E00
713,84	-1,6879E00
714,18	-1,4998E00
714,51	-1,8916E00
714,85	-1,8861E00
715,18	-1,6328E00
715,51	-1,2042E00
715,85	-1,7850E00
716,18	-1,7469E00
716,52	-1,5015E00
716,85	-1,8915E00
717,19	-1,6990E00
717,52	-1,6714E00
717,86	-2,0446E00
718,19	-1,9851E00
718,52	-1,8583E00
718,86	-1,4941E00
719,19	-1,6569E00
719,53	-1,8439E00
719,86	-1,6924E00
720,19	-1,6072E00
720,53	-2,2881E00
720,86	-1,8137E00
721,19	-1,4516E00
721,53	-1,2831E00
721,86	-2,1684E00
722,20	-1,6982E00
722,53	-1,7623E00
722,86	-2,1661E00
723,20	-1,8198E00
723,53	-1,8708E00
723,86	-2,2766E00
724,20	-1,9864E00
724,53	-1,6597E00
724,86	-2,1036E00
725,19	-1,5954E00
725,53	-1,6946E00
725,86	-1,9850E00
726,19	-1,9775E00
726,53	-1,9695E00
726,86	-2,1190E00
727,19	-1,5695E00
727,53	-1,6695E00
727,86	-2,7406E00
728,19	-1,8468E00
728,52	-1,9483E00
728,86	-1,9900E00
729,19	-1,6885E00
729,52	-1,7782E00
729,85	-2,1255E00
730,19	-2,1799E00
730,52	-1,4684E00
730,85	-1,7056E00
731,18	-1,8704E00
731,51	-1,5642E00
731,85	-1,5806E00
732,18	-1,9081E00
732,51	-1,7877E00
732,84	-2,0674E00
733,17	-2,1603E00
733,51	-2,0144E00
733,84	-1,9182E00
734,17	-2,1384E00
734,50	-1,8398E00
734,83	-1,7428E00
735,16	-2,0908E00
735,50	-2,2754E00
735,83	-1,6790E00
736,16	-2,0297E00
736,49	-2,1114E00
736,82	-1,8067E00
737,15	-2,3159E00
737,48	-1,9713E00
737,81	-1,6640E00
738,15	-1,8119E00
738,48	-1,9214E00
738,81	-2,4636E00
739,14	-1,7068E00
739,47	-2,0795E00
739,80	-2,1505E00
740,13	-2,0119E00
740,46	-1,8713E00
740,79	-2,0093E00
741,12	-2,0687E00
741,45	-2,3021E00
741,78	-2,1198E00
742,11	-1,9639E00
742,44	-2,1581E00
742,78	-2,2193E00
743,11	-2,1037E00
743,44	-2,2180E00
743,77	-2,3182E00
744,10	-2,3250E00
744,43	-1,8924E00
744,76	-1,9934E00
745,09	-2,0666E00
745,42	-2,3486E00
745,75	-2,0362E00
746,08	-1,7783E00
746,41	-2,2838E00
746,74	-2,4155E00
747,07	-2,1436E00
747,40	-2,2347E00
747,72	-1,8316E00
748,05	-1,7669E00
748,38	-2,5518E00
748,71	-2,7174E00
749,04	-2,4402E00
749,37	-2,6906E00
749,70	-1,8802E00
750,03	-2,3611E00
750,36	-2,5560E00
750,69	-2,4475E00
751,02	-2,1649E00
751,35	-2,5945E00
751,68	-2,0760E00
752,00	-2,3464E00
752,33	-2,3387E00
752,66	-2,7294E00
752,99	-2,1165E00
753,32	-2,3759E00
753,65	-2,3239E00
753,98	-3,0184E00
754,31	-2,5936E00
754,63	-2,7076E00
754,96	-2,1124E00
755,29	-2,2401E00
755,62	-2,3383E00
755,95	-2,8025E00
756,28	-2,1082E00
756,60	-2,3752E00
756,93	-2,6435E00
757,26	-2,7903E00
757,59	-2,0108E00
757,92	-2,4662E00
758,24	-2,7221E00
758,57	-2,8724E00
758,90	-2,7406E00
759,23	-2,8590E00
759,56	-2,2379E00
759,88	-2,5621E00
760,21	-2,4433E00
760,54	-2,9915E00
760,87	-1,4050E00
761,19	-3,3637E00
761,52	-2,4752E00
761,85	-2,6608E00
762,18	-2,3938E00
762,50	-2,1416E00
762,83	-2,1975E00
763,16	-2,7755E00
763,49	-3,1279E00
763,81	-2,6283E00
764,14	-1,8795E00
764,47	-2,1004E00
764,79	-3,3180E00
765,12	-2,1803E00
765,45	-2,6873E00
765,77	-2,4615E00
766,10	-2,5865E00
766,43	-2,4266E00
766,75	-3,0434E00
767,08	-2,5279E00
767,41	-2,1103E00
767,73	-2,7830E00
768,06	-2,7227E00
768,39	-2,5958E00
768,71	-2,4834E00
769,04	-2,1972E00
769,36	-3,1234E00
769,69	-2,9089E00
770,02	-2,9190E00
770,34	-2,7699E00
770,67	-2,4803E00
770,99	-2,6844E00
771,32	-2,4094E00
771,65	-2,6675E00
771,97	-2,3369E00
772,30	-3,3300E00
772,62	-2,2285E00
772,95	-2,5618E00
773,27	-2,5515E00
773,60	-2,9243E00
773,93	-3,0455E00
774,25	-3,4944E00
774,58	-2,1845E00
774,90	-3,2624E00
775,23	-2,7931E00
775,55	-2,8041E00
775,88	-2,8523E00
776,20	-2,8641E00
776,53	-2,8955E00
776,85	-2,8717E00
777,18	-3,0164E00
777,50	-3,5048E00
777,83	-2,9658E00
778,15	-3,2106E00
778,48	-2,6450E00
778,80	-2,9490E00
779,13	-3,3319E00
779,45	-3,6997E00
779,78	-2,4959E00
780,10	-2,5834E00
780,42	-2,9490E00
780,75	-3,4360E00
781,07	-2,8700E00
781,40	-3,1180E00
781,72	-3,1264E00
782,05	-2,5513E00
782,37	-2,4161E00
782,69	-4,2750E00
783,02	-3,2697E00
783,34	-2,9301E00
783,67	-2,7315E00
783,99	-3,1579E00
784,31	-3,2392E00
784,64	-3,4632E00
784,96	-3,0790E00
785,28	-3,1795E00
785,61	-2,5503E00
785,93	-4,4080E00
786,25	-3,0105E00
786,58	-3,2511E00
786,90	-3,4290E00
787,22	-3,5058E00
787,55	-3,2387E00
787,87	-3,2948E00
788,19	-2,7268E00
788,52	-3,0015E00
788,84	-2,7566E00
789,16	-3,2905E00
789,49	-2,8267E00
789,81	-3,2382E00
790,13	-3,8674E00
790,46	-3,3263E00
790,78	-2,7669E00
791,10	-2,8426E00
791,42	-2,5811E00
791,75	-3,4251E00
792,07	-3,2651E00
792,39	-2,7900E00
792,71	-3,0222E00
793,04	-3,6862E00
793,36	-2,8223E00
793,68	-4,1308E00
794,00	-2,8375E00
794,32	-2,1127E00
794,65	-2,8551E00
794,97	-3,0715E00
795,29	-3,1095E00
795,61	-2,6795E00
795,93	-2,6788E00
796,26	-3,4233E00
796,58	-3,1327E00
796,90	-2,7237E00
797,22	-2,8449E00
797,54	-2,9460E00
797,87	-2,1432E00
798,19	-3,0517E00
798,51	-3,5271E00
798,83	-2,6059E00
799,15	-3,0643E00
799,47	-3,2480E00
799,79	-2,1631E00
800,12	-4,2125E00
800,44	-3,0062E00
800,76	-3,2713E00
801,08	-2,5984E00
801,40	-3,3856E00
801,72	-3,3331E00
802,04	-3,4832E00
802,36	-3,2506E00
802,68	-3,1588E00
803,00	-3,7554E00
803,32	-2,7476E00
803,65	-2,8174E00
803,97	-2,9069E00
804,29	-2,8126E00
804,61	-3,5214E00
804,93	-4,2332E00
805,25	-3,3967E00
805,57	-2,5555E00
805,89	-2,6038E00
806,21	-3,6765E00
806,53	-3,6077E00
806,85	-3,6211E00
807,17	-3,3798E00
807,49	-2,4385E00
807,81	-3,0650E00
808,13	-3,6088E00
808,45	-3,7727E00
808,77	-3,3797E00
809,09	-3,5864E00
809,41	-3,6438E00
809,73	-3,0276E00
810,05	-3,4746E00
810,37	-3,9924E00
810,69	-3,2371E00
811,01	-3,5592E00
811,33	-3,5051E00
811,64	-3,8545E00
811,96	-4,2485E00
812,28	-3,8827E00
812,60	-3,3797E00
812,92	-3,5289E00
813,24	-3,6556E00
813,56	-3,6016E00
813,88	-3,5927E00
814,20	-4,4800E00
814,52	-3,3429E00
814,83	-2,8482E00
815,15	-4,4403E00
815,47	-2,1010E00
815,79	-5,0824E00
816,11	-2,8931E00
816,43	-3,1171E00
816,75	-3,4375E00
817,06	-2,8333E00
817,38	-3,4180E00
817,70	-3,8868E00
818,02	-4,5066E00
818,34	-3,5082E00
818,66	-3,7175E00
818,97	-3,5628E00
819,29	-3,6775E00
819,61	-4,4789E00
819,93	-3,8787E00
820,25	-4,3407E00
820,56	-3,1374E00
820,88	-4,1485E00
821,20	-4,4946E00
821,52	-4,2099E00
821,84	-4,1253E00
822,15	-3,5320E00
822,47	-3,6979E00
822,79	-4,3277E00
823,11	-4,4211E00
823,42	-4,4921E00
823,74	-4,5084E00
824,06	-5,0978E00
824,37	-4,3617E00
824,69	-4,1939E00
825,01	-5,6031E00
825,33	-4,6215E00
825,64	-4,3471E00
825,96	-4,2039E00
826,28	-3,8434E00
826,59	-5,1979E00
826,91	-5,0267E00
827,23	-3,9398E00
827,54	-5,3338E00
827,86	-4,2938E00
828,18	-4,4722E00
828,49	-4,9811E00
828,81	-4,5850E00
829,13	-3,8555E00
829,44	-4,1463E00
829,76	-3,6633E00
830,08	-3,8718E00
830,39	-4,3334E00
830,71	-3,4220E00
831,02	-5,2383E00
831,34	-4,0133E00
831,66	-4,6230E00
831,97	-3,6168E00
832,29	-4,5754E00
832,60	-4,5943E00
832,92	-3,9779E00
833,23	-4,2815E00
833,55	-4,6169E00
833,87	-5,2759E00
834,18	-5,1804E00
834,50	-4,4043E00
834,81	-3,7433E00
835,13	-3,9936E00
835,44	-4,3026E00
835,76	-4,7930E00
836,07	-4,8986E00
836,39	-5,0042E00
836,70	-3,7881E00
837,02	-4,9757E00
837,33	-4,7825E00
837,65	-5,0121E00
837,96	-3,2625E00
838,28	-5,5386E00
838,59	-4,4839E00
838,91	-5,5782E00
839,22	-5,6873E00
839,54	-4,7117E00
839,85	-4,1029E00
840,17	-4,5812E00
840,48	-4,0607E00
840,80	-4,2858E00
841,11	-5,5493E00
841,43	-4,4275E00
841,74	-4,0242E00
842,05	-6,1403E00
842,37	-2,7143E00
842,68	-5,5395E00
843,00	-4,2887E00
843,31	-5,1339E00
843,62	-4,6097E00
843,94	-5,3724E00
844,25	-5,4613E00
844,57	-5,0628E00
844,88	-5,1875E00
845,19	-5,4770E00
845,51	-6,4613E00
845,82	-5,3627E00
846,13	-6,0822E00
846,45	-5,5061E00
846,76	-5,1242E00
847,07	-6,8588E00
847,39	-5,7027E00
847,70	-5,5892E00
848,01	-4,6957E00
848,33	-5,5670E00
848,64	-4,2509E00
848,95	-3,0617E00
849,27	-4,9734E00
849,58	-6,3114E00
849,89	-4,6310E00
850,21	-5,6283E00
850,52	-5,5797E00
850,83	-5,1419E00
851,14	-5,3728E00
851,46	-6,4538E00
851,77	-6,3004E00
852,08	-5,9664E00
852,39	-5,7770E00
852,71	-6,6266E00
853,02	-5,9994E00
853,33	-3,5151E00
853,64	-6,1080E00
853,96	-6,3852E00
854,27	-4,6155E00
854,58	-5,2953E00
854,89	-5,3872E00
855,20	-5,5176E00
855,52	-5,0529E00
855,83	-5,4038E00
856,14	-7,0325E00
856,45	-4,4684E00
856,76	-6,4845E00
857,07	-6,1698E00
857,39	-5,8131E00
857,70	-5,7928E00
858,01	-6,8063E00
858,32	-6,5255E00
858,63	-5,5477E00
858,94	-7,7720E00
859,25	-7,7275E00
859,57	-7,7586E00
859,88	-6,1071E00
860,19	-6,0503E00
860,50	-6,6281E00
860,81	-6,5354E00
861,12	-6,2839E00
861,43	-5,7109E00
861,74	-7,0561E00
862,05	-5,3532E00
862,36	-5,5375E00
862,67	-5,6008E00
862,99	-5,8634E00
863,30	-7,4797E00
863,61	-5,5431E00
863,92	-6,3891E00
864,23	-7,4914E00
864,54	-6,8614E00
864,85	-6,7230E00
865,16	-7,3798E00
865,47	-6,7789E00
865,78	-8,2453E00
866,09	-5,5188E00
866,40	-6,8241E00
866,71	-7,0656E00
867,02	-5,9793E00
867,33	-7,6040E00
867,64	-5,3785E00
867,95	-4,4431E00
868,26	-5,7336E00
868,57	-6,9487E00
868,88	-9,1919E00
869,19	-6,6613E00
869,50	-6,8690E00
869,81	-8,5162E00
870,12	-7,8407E00
870,42	-6,2478E00
870,73	-7,5523E00
871,04	-5,9020E00
871,35	-6,4368E00
871,66	-8,0378E00
871,97	-7,4302E00
872,28	-6,8125E00
872,59	-7,8352E00
872,90	-1,0337E01
873,21	-5,9324E00
873,52	-7,9663E00
873,82	-7,7696E00
874,13	-6,1753E00
874,44	-6,4013E00
874,75	-7,9469E00
875,06	-7,3066E00
875,37	-6,8504E00
875,68	-6,2461E00
875,98	-7,2764E00
876,29	-6,6587E00
876,60	-8,4037E00
876,91	-6,3244E00
877,22	-8,0874E00
877,52	-8,1779E00
877,83	-7,2953E00
878,14	-8,0094E00
878,45	-8,7302E00
878,76	-8,3609E00
879,06	-7,2501E00
879,37	-9,2406E00
879,68	-1,0516E01
879,99	-8,0103E00
880,30	-8,1047E00
880,60	-1,0306E01
880,91	-9,9219E00
881,22	-8,3956E00
881,53	-7,5589E00
881,83	-7,8676E00
882,14	-8,0710E00
882,45	-8,8311E00
882,75	-8,2553E00
883,06	-8,6273E00
883,37	-7,7033E00
883,68	-7,7381E00
883,98	-9,9793E00
884,29	-6,5472E00
884,60	-9,1966E00
884,90	-1,2264E01
885,21	-8,8529E00
885,52	-7,0907E00
885,82	-9,3010E00
886,13	-9,5084E00
886,44	-8,2496E00
886,74	-8,5020E00
887,05	-1,1672E01
887,36	-7,1324E00
887,66	-9,8396E00
887,97	-7,1601E00
888,27	-9,4691E00
888,58	-1,0547E01
888,89	-9,2078E00
889,19	-8,7571E00
889,50	-1,0304E01
889,80	-8,8383E00
890,11	-8,6164E00
890,42	-1,1007E01
890,72	-9,7751E00
891,03	-9,7311E00
891,33	-9,8055E00
891,64	-9,2191E00
891,94	-9,8308E00
892,25	-9,5449E00
892,56	-8,8889E00
892,86	-9,1425E00
893,17	-1,1867E01
893,47	-1,0434E01
893,78	-8,0897E00
894,08	-8,6968E00
894,39	-1,0881E01
894,69	-8,4672E00
895,00	-8,8378E00
895,30	-9,6305E00
895,61	-9,8799E00
895,91	-9,5870E00
896,22	-8,5573E00
896,52	-9,5329E00
896,83	-9,4166E00
897,13	-1,2094E01
897,43	-8,8790E00
897,74	-7,9117E00
898,04	-9,4994E00
898,35	-1,0355E01
898,65	-9,9340E00
898,96	-1,1459E01
899,26	-1,0368E01
899,57	-9,2173E00
899,87	-9,8940E00
900,17	-9,7756E00
900,48	-8,3758E00
900,78	-1,1010E01
901,09	-8,6895E00
901,39	-1,0292E01
901,69	-8,3363E00
902,00	-9,0163E00
902,30	-9,0908E00
902,60	-9,4709E00
902,91	-1,2013E01
903,21	-7,7751E00
903,51	-1,0325E01
903,82	-7,7462E00
904,12	-7,3328E00
904,42	-8,3506E00
904,73	-8,3096E00
905,03	-8,9588E00
905,33	-1,0808E01
905,64	-1,1527E01
905,94	-9,6608E00
906,24	-8,4796E00
906,55	-1,1870E01
906,85	-8,0195E00
907,15	-1,0145E01
907,45	-8,4433E00
907,76	-1,2243E01
908,06	-8,3519E00
908,36	-8,1835E00
908,66	-6,8547E00
908,97	-1,0051E01
909,27	-1,1188E01
909,57	-9,0676E00
909,87	-8,4987E00
910,18	-8,1362E00
910,48	-1,1983E01
910,78	-9,1218E00
911,08	-1,2539E01
911,39	-1,2923E01
911,69	-1,1164E01
911,99	-1,0335E01
912,29	-1,2004E01
912,59	-1,0706E01
912,89	-1,2459E01
913,20	-1,0816E01
913,50	-1,1490E01
913,80	-1,0789E01
914,10	-1,2724E01
914,40	-1,1882E01
914,70	-1,1314E01
915,01	-1,3078E01
915,31	-1,0733E01
915,61	-1,2290E01
915,91	-1,0349E01
916,21	-1,1210E01
916,51	-1,1349E01
916,81	-1,1196E01
917,11	-1,1262E01
917,41	-8,5857E00
917,72	-1,1773E01
918,02	-1,2214E01
918,32	-1,3935E01
918,62	-1,1666E01
918,92	-1,1200E01
919,22	-1,3562E01
919,52	-1,5025E01
919,82	-1,6503E01
920,12	-9,5866E00
920,42	-1,0825E01
920,72	-1,4213E01
921,02	-1,3108E01
921,32	-1,2002E01
921,62	-1,3944E01
921,92	-1,3960E01
922,22	-1,5455E01
922,52	-1,1695E01
922,82	-1,3771E01
923,12	-1,3624E01
923,42	-1,2114E01
923,72	-1,1519E01
924,02	-1,3127E01
924,32	-1,1759E01
924,62	-1,3747E01
924,92	-1,6810E01
925,22	-1,2462E01
925,52	-1,4591E01
925,82	-1,2392E01
926,12	-1,2849E01
926,42	-1,9295E01
926,72	-1,1880E01
927,02	-1,2439E01
927,31	-1,4407E01
927,61	-1,4060E01
927,91	-1,4824E01
928,21	-1,8363E01
928,51	-1,6189E01
928,81	-1,1481E01
929,11	-1,6425E01
929,41	-1,3904E01
929,71	-1,6084E01
930,00	-1,2741E01
930,30	-1,1036E01
930,60	-1,3856E01
930,90	-1,2547E01
931,20	-1,6167E01
931,50	-1,7370E01
931,79	-1,7659E01
932,09	-1,6580E01
932,39	-1,8910E01
932,69	-1,4446E01
932,99	-1,6248E01
933,29	-1,7314E01
933,58	-2,3588E01
933,88	-1,9105E01
934,18	-1,4616E01
934,48	-2,1434E01
934,77	-1,9201E01
935,07	-2,1474E01
935,37	-1,8969E01
935,67	-2,2783E01
935,97	-1,8144E01
936,26	-2,0687E01
936,56	-1,9968E01
936,86	-1,8457E01
937,15	-1,7952E01
937,45	-2,0528E01
937,75	-1,8009E01
938,05	-2,4864E01
938,34	-1,9956E01
938,64	-2,7525E01
938,94	-1,6876E01
939,23	-2,3772E01
939,53	-2,0546E01
939,83	-2,4348E01
940,12	-2,7486E01
940,42	-3,9766E01
940,72	-2,8352E01
941,01	-2,3024E01
941,31	-2,8027E01
941,61	-3,1048E01
941,90	-2,5587E01
942,20	-3,1514E01
942,50	-2,9087E01
942,79	-2,2359E01
943,09	-2,5992E01
943,38	-2,7635E01
943,68	-2,9658E01
943,98	-2,6926E01
944,27	-2,6443E01
944,57	-2,4147E01
944,86	-2,7338E01
945,16	-3,8138E01
945,46	-3,3757E01
945,75	-3,7590E01
946,05	-3,2939E01
946,34	-2,6775E01
946,64	-3,3677E01
946,93	-2,8035E01
947,23	-3,3297E01
947,52	-3,0281E01
947,82	-2,7670E01
948,12	-2,6718E01
948,41	-2,8914E01
948,71	-3,1929E01
949,00	-2,9086E01
949,30	-3,9527E01
949,59	-3,5134E01
949,89	-2,9032E01
950,18	-3,6318E01
950,48	-3,4442E01
950,77	-3,7246E01
951,06	-3,2387E01
951,36	-3,9630E01
951,65	-3,8954E01
951,95	-3,4490E01
952,24	-3,6192E01
952,54	-3,2574E01
952,83	-3,0453E01
953,13	-2,6633E01
953,42	-2,8777E01
953,71	-2,8387E01
954,01	-3,5055E01
954,30	-2,6528E01
954,60	-2,8503E01
954,89	-3,2871E01
955,18	-3,6598E01
955,48	-3,2355E01
955,77	-3,5459E01
956,07	-3,6638E01
956,36	-3,4355E01
956,65	-3,0970E01
956,95	-3,4115E01
957,24	-2,6527E01
957,53	-3,2515E01
957,83	-2,7551E01
958,12	-3,4447E01
958,41	-3,5426E01
958,71	-3,1511E01
959,00	-3,0693E01
959,29	-3,0536E01
959,59	-3,1958E01
959,88	-4,2130E01
960,17	-4,6494E01
960,46	-3,1758E01
960,76	-3,0050E01
961,05	-3,6898E01
961,34	-3,0233E01
961,64	-3,4442E01
961,93	-3,7767E01
962,22	-3,0990E01
962,51	-2,8809E01
962,81	-4,0475E01
963,10	-2,9718E01
963,39	-2,4719E01
963,68	-3,1115E01
963,97	-3,7552E01
964,27	-3,6538E01
964,56	-3,2655E01
964,85	-4,4431E01
965,14	-3,7435E01
965,43	-3,9054E01
965,73	-4,3832E01
966,02	-4,7407E01
966,31	-3,8878E01
966,60	-3,5392E01
966,89	-3,7565E01
967,19	-4,5408E01
967,48	-4,6140E01
967,77	-4,3386E01
968,06	-3,6594E01
968,35	-4,4895E01
968,64	-3,6239E01
968,93	-3,9456E01
969,22	-3,6860E01
969,52	-4,9134E01
969,81	-4,1158E01
970,10	-5,0254E01
970,39	-4,4829E01
970,68	-4,9336E01
970,97	-3,2625E01
971,26	-4,4294E01
971,55	-4,5088E01
971,84	-5,0235E01
972,13	-4,4067E01
972,42	-4,2986E01
972,71	-5,5140E01
973,01	-5,0174E01
973,30	-4,9625E01
973,59	-4,0681E01
973,88	-3,7297E01
974,17	-2,7026E01
974,46	-4,3808E01
974,75	-4,7056E01
975,04	-4,5337E01
975,33	-4,7370E01
975,62	-4,9095E01
975,91	-4,4049E01
976,20	-4,7606E01
976,49	-5,1786E01
976,78	-4,4819E01
977,07	-3,6275E01
977,36	-5,5088E01
977,64	-4,3543E01
977,93	-4,3756E01
978,22	-4,2160E01
978,51	-4,7758E01
978,80	-5,1606E01
979,09	-5,8671E01
979,38	-4,7632E01
979,67	-5,1234E01
979,96	-5,4641E01
980,25	-5,1127E01
980,54	-3,8942E01
980,83	-5,5158E01
981,12	-4,3880E01
981,40	-4,7009E01
981,69	-4,0895E01
981,98	-5,5992E01
982,27	-5,6793E01
982,56	-5,3377E01
982,85	-4,7105E01
983,14	-4,0689E01
983,42	-5,0280E01
983,71	-5,4616E01
984,00	-6,1211E01
984,29	-5,2535E01
984,58	-6,2005E01
984,87	-6,5434E01
985,15	-5,9599E01
985,44	-5,1783E01
985,73	-6,0914E01
986,02	-4,6895E01
986,31	-5,2696E01
986,59	-6,9095E01
986,88	-6,4995E01
987,17	-7,0632E01
987,46	-5,2471E01
987,74	-6,8644E01
988,03	-7,0782E01
988,32	-9,4146E01
988,61	-6,3289E01
988,89	-5,9609E01
989,18	-5,1686E01
989,47	-6,5160E01
989,76	-6,4775E01
990,04	-8,0617E01
990,33	-6,5773E01
990,62	-5,6347E01
990,90	-5,5517E01
991,19	-7,7656E01
991,48	-6,4017E01
991,76	-7,3948E01
992,05	-6,9140E01
992,34	-7,3088E01
992,62	-7,4558E01
992,91	-6,7294E01
993,20	-6,8400E01
993,48	-7,7481E01
993,77	-5,1016E01
994,06	-7,1111E01
994,34	-8,2836E01
994,63	-8,6529E01
994,92	-7,6870E01
995,20	-7,9144E01
995,49	-8,4281E01
995,77	-8,8626E01
996,06	-7,5690E01
996,35	-9,0218E01
996,63	-6,2974E01
996,92	-8,6108E01
997,20	-8,0562E01
997,49	-7,1126E01
997,77	-9,9319E01
998,06	-7,7921E01
998,34	-5,9866E01
998,63	-8,5294E01
998,92	-1,0509E02
999,20	-7,6031E01
999,49	-9,8913E01
999,77	-6,9969E01
1000,06	-1,1016E02
1000,34	-7,6569E01
1000,63	-9,8531E01
1000,91	-8,4028E01
1001,20	-9,9936E01
1001,48	-9,2413E01
1001,77	-1,1489E02
1002,05	-1,0544E02
1002,34	-1,1284E02
1002,62	-1,1510E02
1002,90	-1,0029E02
1003,19	-1,1919E02
1003,47	-1,2038E02
1003,76	-7,8886E01
1004,04	-1,2289E02
1004,33	-1,2931E02
1004,61	-9,2030E01
1004,89	-9,4345E01
1005,18	-7,2498E01
1005,46	-1,1775E02
1005,75	-1,4576E02
1006,03	-1,5214E02
1006,31	-1,2345E02
1006,60	-1,2159E02
1006,88	-1,0820E02
1007,17	-1,1647E02
1007,45	-1,4832E02
1007,73	-9,5645E01
1008,02	-1,4060E02
1008,30	-1,3640E02
1008,58	-1,0073E02
1008,87	-1,1899E02
1009,15	-1,6271E02
1009,43	-1,1963E02
1009,72	-1,1391E02
1010,00	-1,5824E02
1010,28	-1,3794E02
1010,57	-1,1007E02
1010,85	-1,3800E02
1011,13	-1,6668E02
1011,41	-1,4019E02
1011,70	-1,3997E02
1011,98	-1,2117E02
1012,26	-1,7658E02
1012,55	-1,3023E02
1012,83	-1,3239E02
1013,11	-1,1643E02
1013,39	-1,2483E02
1013,68	-1,6085E02
1013,96	-1,4097E02
1014,24	-1,3296E02
1014,52	-1,5740E02
1014,80	-1,5222E02
1015,09	-1,8665E02
1015,37	-1,5295E02
1015,65	-1,7670E02
1015,93	-1,7610E02
1016,21	-1,4931E02
1016,50	-1,3952E02
1016,78	-1,7611E02
1017,06	-1,3945E02
1017,34	-1,5752E02
1017,62	-1,9942E02
1017,90	-2,0974E02
1018,19	-1,7020E02
1018,47	-1,9292E02
1018,75	-1,7203E02
1019,03	-1,4586E02
1019,31	-1,8743E02
1019,59	-2,1595E02
1019,87	-1,6655E02
1020,15	-1,6218E02
1020,44	-2,3529E02
1020,72	-1,7794E02
1021,00	-1,2831E02
1021,28	-1,6814E02
1021,56	-1,9938E02
1021,84	-2,0700E02
1022,12	-2,3553E02
1022,40	-1,9828E02
1022,68	-1,9769E02
1022,96	-2,1969E02
1023,24	-2,4437E02
1023,52	-2,3913E02
1023,80	-2,3926E02
1024,08	-2,3926E02
>>>>>End Processed Spectral Data<<<<<
