SpectraSuite Datei
++++++++++++++++++++++++++++++++++++
Datum: Thu Jan 20 12:19:36 CET 2022
Benutzer: RMV
Dark-Spektrum vorhanden: Ja
Referenz-Spektrum vorhanden: Nein
Zahl der probierten Teilspektren: 1
Spektrometer: USB2+H07983
Integrationszeit (usec): 3170 (USB2+H07983)
Spektren Durchschnitt berechnet: 1 (USB2+H07983)
Boxcar Glättung: 0 (USB2+H07983)
Dunkelstromkorrektur: Nein (USB2+H07983)
Puls/Lampe aktiviert: Nein (USB2+H07983)
Correct for Detector Non-linearity: Nein (USB2+H07983)
Streulichtkorrektur: Nein (USB2+H07983)
Anzahl Pixel in verarbeitetem Spektrum: 2048
>>>>>Begin Processed Spectral Data<<<<<
339,47	-0,0000E00
339,85	-0,0000E00
340,24	-0,0000E00
340,62	-0,0000E00
341,01	-0,0000E00
341,39	-0,0000E00
341,77	-0,0000E00
342,16	-0,0000E00
342,54	-0,0000E00
342,92	-0,0000E00
343,31	-0,0000E00
343,69	-0,0000E00
344,07	-0,0000E00
344,46	-0,0000E00
344,84	-0,0000E00
345,22	-0,0000E00
345,61	-0,0000E00
345,99	-0,0000E00
346,37	-0,0000E00
346,76	-0,0000E00
347,14	-0,0000E00
347,52	-0,0000E00
347,91	-0,0000E00
348,29	-0,0000E00
348,67	-7,2941E00
349,05	-6,3178E00
349,44	-5,3219E00
349,82	-6,4078E00
350,20	-3,9145E00
350,59	-3,9847E00
350,97	-4,3748E00
351,35	-4,2713E00
351,73	-4,9269E00
352,12	-4,2386E00
352,50	-4,7464E00
352,88	-3,7422E00
353,26	-3,9544E00
353,65	-4,3542E00
354,03	-4,4696E00
354,41	-4,2656E00
354,79	-3,1825E00
355,17	-4,3796E00
355,56	-4,7035E00
355,94	-3,8337E00
356,32	-4,1867E00
356,70	-4,0119E00
357,08	-3,5544E00
357,47	-4,7692E00
357,85	-4,8808E00
358,23	-4,6593E00
358,61	-4,4166E00
358,99	-4,3877E00
359,38	-3,8109E00
359,76	-4,8986E00
360,14	-5,6150E00
360,52	-4,3707E00
360,90	-3,7535E00
361,28	-3,9763E00
361,66	-5,0449E00
362,05	-4,7730E00
362,43	-4,3398E00
362,81	-4,9738E00
363,19	-3,4585E00
363,57	-4,1206E00
363,95	-3,8547E00
364,33	-4,8807E00
364,71	-4,8550E00
365,10	-4,3936E00
365,48	-4,6039E00
365,86	-5,4121E00
366,24	-4,0885E00
366,62	-3,8371E00
367,00	-5,1205E00
367,38	-3,3908E00
367,76	-3,9146E00
368,14	-3,9322E00
368,52	-4,0966E00
368,90	-3,8187E00
369,28	-4,1862E00
369,66	-3,6181E00
370,04	-4,9234E00
370,42	-4,3629E00
370,81	-5,3769E00
371,19	-4,6885E00
371,57	-5,0890E00
371,95	-3,8147E00
372,33	-4,0740E00
372,71	-4,5489E00
373,09	-5,3094E00
373,47	-3,1016E00
373,85	-3,8196E00
374,23	-5,1649E00
374,61	-4,1496E00
374,99	-3,3187E00
375,37	-3,3968E00
375,75	-4,3026E00
376,13	-3,7960E00
376,51	-3,9204E00
376,88	-3,1675E00
377,26	-3,8623E00
377,64	-3,9185E00
378,02	-4,0559E00
378,40	-3,5237E00
378,78	-4,3453E00
379,16	-4,0457E00
379,54	-3,9356E00
379,92	-4,2104E00
380,30	-3,3412E00
380,68	-3,5551E00
381,06	-3,8339E00
381,44	-4,0169E00
381,82	-3,1866E00
382,20	-3,4915E00
382,57	-2,9639E00
382,95	-3,2977E00
383,33	-3,1279E00
383,71	-3,3524E00
384,09	-4,1650E00
384,47	-3,7112E00
384,85	-3,8318E00
385,23	-3,7754E00
385,60	-2,6705E00
385,98	-2,7736E00
386,36	-3,2597E00
386,74	-3,3159E00
387,12	-3,1466E00
387,50	-2,6100E00
387,88	-4,1100E00
388,25	-3,4306E00
388,63	-3,1798E00
389,01	-3,0243E00
389,39	-3,3620E00
389,77	-3,5696E00
390,14	-4,2252E00
390,52	-3,1013E00
390,90	-3,2134E00
391,28	-3,5501E00
391,66	-3,5787E00
392,03	-2,7202E00
392,41	-2,7965E00
392,79	-2,9327E00
393,17	-3,2733E00
393,54	-3,0977E00
393,92	-2,8140E00
394,30	-2,9301E00
394,68	-2,7152E00
395,06	-2,8231E00
395,43	-3,0412E00
395,81	-2,4885E00
396,19	-2,7367E00
396,56	-3,0287E00
396,94	-2,9919E00
397,32	-2,8183E00
397,70	-2,7349E00
398,07	-1,9408E00
398,45	-2,4312E00
398,83	-2,8363E00
399,20	-2,1011E00
399,58	-2,6909E00
399,96	-2,3853E00
400,34	-3,2434E00
400,71	-2,7019E00
401,09	-3,1862E00
401,47	-2,4529E00
401,84	-2,7933E00
402,22	-2,1918E00
402,60	-2,4776E00
402,97	-2,5916E00
403,35	-2,7150E00
403,73	-2,1321E00
404,10	-2,6701E00
404,48	-3,1538E00
404,85	-2,7074E00
405,23	-1,9823E00
405,61	-2,9659E00
405,98	-2,8391E00
406,36	-2,5636E00
406,74	-2,9820E00
407,11	-2,1485E00
407,49	-2,6400E00
407,86	-2,3871E00
408,24	-2,3951E00
408,62	-2,2645E00
408,99	-2,3097E00
409,37	-2,5561E00
409,74	-2,2916E00
410,12	-2,3120E00
410,49	-2,2707E00
410,87	-2,5443E00
411,25	-1,9134E00
411,62	-2,3017E00
412,00	-2,0125E00
412,37	-2,4910E00
412,75	-2,8829E00
413,12	-2,4251E00
413,50	-2,6777E00
413,87	-2,2195E00
414,25	-1,7516E00
414,62	-1,8935E00
415,00	-2,6371E00
415,37	-1,6990E00
415,75	-2,2991E00
416,12	-2,0677E00
416,50	-2,4847E00
416,87	-1,4814E00
417,25	-2,0500E00
417,62	-2,6946E00
418,00	-1,7598E00
418,37	-2,5056E00
418,75	-2,0333E00
419,12	-2,0116E00
419,50	-2,2252E00
419,87	-2,2941E00
420,25	-2,1304E00
420,62	-1,9039E00
420,99	-2,4180E00
421,37	-1,8903E00
421,74	-2,1311E00
422,12	-3,9050E00
422,49	-1,9672E00
422,87	-1,7609E00
423,24	-2,2749E00
423,61	-1,4412E00
423,99	-1,9010E00
424,36	-1,6371E00
424,74	-1,6817E00
425,11	-2,0319E00
425,48	-1,6157E00
425,86	-1,4882E00
426,23	-2,3173E00
426,60	-2,0078E00
426,98	-1,6283E00
427,35	-1,9911E00
427,73	-2,2068E00
428,10	-1,6932E00
428,47	-1,3107E00
428,85	-1,6945E00
429,22	-1,7463E00
429,59	-1,2510E00
429,97	-2,0516E00
430,34	-1,9866E00
430,71	-1,1462E00
431,09	-1,9730E00
431,46	-1,5306E00
431,83	-1,6846E00
432,21	-1,5826E00
432,58	-1,7523E00
432,95	-2,0001E00
433,32	-2,2442E00
433,70	-1,7410E00
434,07	-1,7544E00
434,44	-1,3599E00
434,82	-1,7354E00
435,19	-1,5961E00
435,56	-1,5316E00
435,93	-1,8258E00
436,31	-1,7853E00
436,68	-2,2470E00
437,05	-2,0760E00
437,42	-2,1093E00
437,80	-1,7230E00
438,17	-1,8831E00
438,54	-1,5942E00
438,91	-1,3288E00
439,28	-1,6230E00
439,66	-1,3174E00
440,03	-1,6797E00
440,40	-1,7004E00
440,77	-1,7130E00
441,14	-1,4338E00
441,52	-1,0150E00
441,89	-1,4003E00
442,26	-1,4226E00
442,63	-1,6031E00
443,00	-1,4777E00
443,38	-1,6778E00
443,75	-1,5550E00
444,12	-1,4905E00
444,49	-1,3691E00
444,86	-1,3743E00
445,23	-1,3796E00
445,60	-1,4232E00
445,98	-1,5427E00
446,35	-1,5747E00
446,72	-1,6360E00
447,09	-1,4290E00
447,46	-1,5354E00
447,83	-1,3491E00
448,20	-1,0805E00
448,57	-1,3178E00
448,94	-1,7436E00
449,32	-1,1936E00
449,69	-1,0882E00
450,06	-1,2676E00
450,43	-1,6856E00
450,80	-1,8363E00
451,17	-1,5698E00
451,54	-1,4489E00
451,91	-1,3837E00
452,28	-1,1400E00
452,65	-1,4202E00
453,02	-1,0401E00
453,39	-1,5728E00
453,76	-1,3743E00
454,13	-1,2649E00
454,50	-1,4812E00
454,87	-1,3635E00
455,24	-1,7071E00
455,61	-1,3287E00
455,98	-1,3552E00
456,35	-1,6057E00
456,72	-1,6378E00
457,09	-1,5648E00
457,46	-1,1489E00
457,83	-1,6008E00
458,20	-1,6050E00
458,57	-1,4998E00
458,94	-8,4921E-01
459,31	-1,3907E00
459,68	-1,2004E00
460,05	-1,5783E00
460,42	-1,5014E00
460,79	-1,2870E00
461,16	-1,3825E00
461,53	-1,2558E00
461,90	-1,6428E00
462,27	-1,1269E00
462,64	-1,3856E00
463,01	-1,1017E00
463,38	-1,1899E00
463,75	-1,4184E00
464,12	-1,3959E00
464,48	-1,2483E00
464,85	-1,4317E00
465,22	-1,3103E00
465,59	-1,4428E00
465,96	-1,4749E00
466,33	-1,1924E00
466,70	-1,0093E00
467,07	-1,6292E00
467,44	-1,0961E00
467,80	-1,2078E00
468,17	-1,3099E00
468,54	-1,4823E00
468,91	-1,3802E00
469,28	-1,2720E00
469,65	-1,5239E00
470,02	-1,1103E00
470,38	-9,5839E-01
470,75	-1,1664E00
471,12	-1,2875E00
471,49	-1,3710E00
471,86	-1,0096E00
472,22	-1,0443E00
472,59	-9,3462E-01
472,96	-1,1372E00
473,33	-8,5981E-01
473,70	-1,0851E00
474,06	-7,6635E-01
474,43	-1,0781E00
474,80	-1,1218E00
475,17	-1,0623E00
475,54	-1,0385E00
475,90	-1,1267E00
476,27	-9,9995E-01
476,64	-1,1959E00
477,01	-1,1279E00
477,37	-1,0807E00
477,74	-1,0395E00
478,11	-1,1395E00
478,48	-1,2484E00
478,84	-1,0002E00
479,21	-1,0083E00
479,58	-6,6610E-01
479,94	-9,4279E-01
480,31	-1,0807E00
480,68	-8,4017E-01
481,05	-8,4726E-01
481,41	-7,4701E-01
481,78	-9,0250E-01
482,15	-7,8416E-01
482,51	-8,5583E-01
482,88	-7,6081E-01
483,25	-6,8437E-01
483,61	-6,5648E-01
483,98	-6,6540E-01
484,35	-7,1444E-01
484,71	-7,6243E-01
485,08	-7,1964E-01
485,45	-7,0311E-01
485,81	-8,3758E-01
486,18	-8,2888E-01
486,54	-8,2079E-01
486,91	-8,1355E-01
487,28	-6,4211E-01
487,64	-7,2953E-01
488,01	-6,8158E-01
488,38	-6,0695E-01
488,74	-7,8732E-01
489,11	-7,3157E-01
489,47	-6,1895E-01
489,84	-7,9992E-01
490,20	-5,9255E-01
490,57	-8,7203E-01
490,94	-5,8040E-01
491,30	-5,7643E-01
491,67	-7,2632E-01
492,03	-7,3452E-01
492,40	-6,2851E-01
492,76	-6,1602E-01
493,13	-6,8734E-01
493,50	-6,0037E-01
493,86	-6,3366E-01
494,23	-6,8730E-01
494,59	-5,4075E-01
494,96	-5,8986E-01
495,32	-6,2675E-01
495,69	-5,7536E-01
496,05	-7,1502E-01
496,42	-6,9158E-01
496,78	-6,4469E-01
497,15	-5,4790E-01
497,51	-6,3906E-01
497,88	-6,0907E-01
498,24	-5,9490E-01
498,61	-6,1946E-01
498,97	-6,5229E-01
499,34	-6,1569E-01
499,70	-6,6740E-01
500,06	-6,3509E-01
500,43	-6,1828E-01
500,79	-5,7136E-01
501,16	-6,8675E-01
501,52	-4,9681E-01
501,89	-5,7081E-01
502,25	-5,5072E-01
502,62	-6,3151E-01
502,98	-5,8888E-01
503,34	-4,6844E-01
503,71	-6,5634E-01
504,07	-5,6246E-01
504,44	-5,3930E-01
504,80	-5,0535E-01
505,16	-6,2229E-01
505,53	-6,5829E-01
505,89	-6,0948E-01
506,26	-6,3792E-01
506,62	-6,0790E-01
506,98	-5,4487E-01
507,35	-6,7607E-01
507,71	-5,3310E-01
508,07	-7,5178E-01
508,44	-5,9440E-01
508,80	-7,6892E-01
509,16	-5,4621E-01
509,53	-4,9826E-01
509,89	-5,7439E-01
510,25	-5,5629E-01
510,62	-4,9806E-01
510,98	-5,4158E-01
511,34	-6,5027E-01
511,71	-5,6314E-01
512,07	-5,7373E-01
512,43	-5,8430E-01
512,80	-5,9117E-01
513,16	-6,1618E-01
513,52	-6,2706E-01
513,88	-4,9989E-01
514,25	-4,6321E-01
514,61	-6,2916E-01
514,97	-6,5396E-01
515,33	-5,4176E-01
515,70	-6,4935E-01
516,06	-5,9162E-01
516,42	-6,5289E-01
516,78	-4,6866E-01
517,15	-5,0100E-01
517,51	-8,0321E-01
517,87	-6,0872E-01
518,23	-5,0446E-01
518,60	-5,0817E-01
518,96	-6,0918E-01
519,32	-5,7331E-01
519,68	-6,0637E-01
520,04	-4,8362E-01
520,41	-5,1598E-01
520,77	-6,4261E-01
521,13	-5,4899E-01
521,49	-6,0368E-01
521,85	-6,0400E-01
522,22	-6,1478E-01
522,58	-5,1009E-01
522,94	-7,0193E-01
523,30	-6,9093E-01
523,66	-5,4273E-01
524,02	-5,2473E-01
524,38	-5,4657E-01
524,75	-5,2123E-01
525,11	-6,7332E-01
525,47	-5,5385E-01
525,83	-4,7407E-01
526,19	-6,2944E-01
526,55	-6,4386E-01
526,91	-6,6926E-01
527,27	-4,0530E-01
527,64	-5,4951E-01
528,00	-5,1686E-01
528,36	-4,3366E-01
528,72	-6,1433E-01
529,08	-6,1050E-01
529,44	-6,4261E-01
529,80	-7,2568E-01
530,16	-4,5129E-01
530,52	-6,0625E-01
530,88	-7,1769E-01
531,24	-4,3255E-01
531,60	-5,0821E-01
531,96	-5,6558E-01
532,32	-6,6985E-01
532,68	-5,3986E-01
533,04	-5,1799E-01
533,40	-6,0426E-01
533,77	-6,2877E-01
534,13	-5,5297E-01
534,49	-4,6657E-01
534,85	-5,4905E-01
535,21	-5,2704E-01
535,57	-5,2301E-01
535,93	-7,5145E-01
536,29	-6,2210E-01
536,65	-6,3591E-01
537,00	-4,1772E-01
537,36	-4,8511E-01
537,72	-6,0616E-01
538,08	-5,0580E-01
538,44	-5,2668E-01
538,80	-4,6934E-01
539,16	-6,6476E-01
539,52	-4,8679E-01
539,88	-5,0096E-01
540,24	-6,3935E-01
540,60	-6,7121E-01
540,96	-5,9286E-01
541,32	-4,2233E-01
541,68	-6,1042E-01
542,04	-5,2180E-01
542,40	-4,9335E-01
542,75	-6,0678E-01
543,11	-6,1718E-01
543,47	-5,4983E-01
543,83	-5,4645E-01
544,19	-4,8606E-01
544,55	-5,1096E-01
544,91	-5,5363E-01
545,27	-5,4658E-01
545,63	-6,1385E-01
545,98	-5,5027E-01
546,34	-5,1151E-01
546,70	-5,1532E-01
547,06	-4,9427E-01
547,42	-5,8697E-01
547,78	-5,4087E-01
548,13	-5,8751E-01
548,49	-6,1608E-01
548,85	-5,2376E-01
549,21	-7,5948E-01
549,57	-6,4603E-01
549,93	-5,3918E-01
550,28	-6,4322E-01
550,64	-4,7908E-01
551,00	-4,7937E-01
551,36	-5,6225E-01
551,71	-6,0565E-01
552,07	-5,8815E-01
552,43	-4,5577E-01
552,79	-5,0292E-01
553,15	-5,7885E-01
553,50	-4,8207E-01
553,86	-4,4287E-01
554,22	-4,8641E-01
554,58	-5,8051E-01
554,93	-5,9567E-01
555,29	-4,9142E-01
555,65	-5,6437E-01
556,01	-5,4316E-01
556,36	-5,4755E-01
556,72	-6,0254E-01
557,08	-4,5782E-01
557,43	-5,2391E-01
557,79	-5,2819E-01
558,15	-5,2141E-01
558,50	-5,8810E-01
558,86	-4,1314E-01
559,22	-3,8068E-01
559,58	-4,0675E-01
559,93	-6,6062E-01
560,29	-4,4479E-01
560,65	-4,8223E-01
561,00	-5,4939E-01
561,36	-5,5764E-01
561,71	-5,5125E-01
562,07	-5,4129E-01
562,43	-4,3102E-01
562,78	-4,2087E-01
563,14	-5,2640E-01
563,50	-3,9662E-01
563,85	-5,6985E-01
564,21	-5,1076E-01
564,57	-1,6944E-01
564,92	-4,8313E-01
565,28	-4,7281E-01
565,63	-4,7000E-01
565,99	-4,8226E-01
566,35	-5,4410E-01
566,70	-3,3152E-01
567,06	-4,6190E-01
567,41	-4,0912E-01
567,77	-2,8357E-01
568,12	-4,0324E-01
568,48	-4,1924E-01
568,83	-3,9681E-01
569,19	-3,8601E-01
569,55	-2,4366E-01
569,90	-2,0545E-01
570,26	-4,5030E-01
570,61	-4,9415E-01
570,97	-4,0145E-01
571,32	-4,3357E-01
571,68	-2,7007E-01
572,03	-4,4701E-01
572,39	-2,7109E-01
572,74	-4,6852E-01
573,10	-2,5245E-01
573,45	-2,8458E-01
573,81	-1,0293E-01
574,16	-1,6662E-01
574,52	-2,9801E-01
574,87	-4,7776E-02
575,23	-1,7954E-01
575,58	-1,0390E-01
575,94	-6,8065E-02
576,29	-1,2436E-01
576,64	-3,6171E-02
577,00	-1,2884E-01
577,35	4,0352E-02
577,71	2,9521E-01
578,06	4,0519E-03
578,42	-3,6553E-02
578,77	4,4768E-02
579,12	1,9572E-01
579,48	1,5118E-01
579,83	3,0704E-01
580,19	3,4042E-01
580,54	2,3839E-01
580,89	3,5840E-01
581,25	6,1877E-01
581,60	6,6952E-01
581,96	4,8858E-01
582,31	6,9669E-01
582,66	7,2696E-01
583,02	8,1152E-01
583,37	7,0450E-01
583,72	7,8977E-01
584,08	9,2936E-01
584,43	1,1365E00
584,78	1,1006E00
585,14	1,1492E00
585,49	1,3579E00
585,84	1,2467E00
586,20	1,6181E00
586,55	1,3840E00
586,90	1,5951E00
587,26	1,7005E00
587,61	1,9858E00
587,96	2,0416E00
588,32	2,0541E00
588,67	2,2687E00
589,02	2,4585E00
589,37	2,3207E00
589,73	2,5407E00
590,08	2,5283E00
590,43	2,9064E00
590,78	3,1164E00
591,14	3,3961E00
591,49	3,3786E00
591,84	3,7432E00
592,19	3,8162E00
592,55	3,7922E00
592,90	4,0735E00
593,25	4,2747E00
593,60	4,5630E00
593,96	4,6483E00
594,31	5,1668E00
594,66	5,3821E00
595,01	5,6746E00
595,36	5,9259E00
595,72	5,9601E00
596,07	6,5523E00
596,42	6,7118E00
596,77	6,9546E00
597,12	6,9964E00
597,47	7,7145E00
597,83	7,9045E00
598,18	8,0182E00
598,53	8,7349E00
598,88	9,3247E00
599,23	9,3460E00
599,58	9,9513E00
599,93	1,0270E01
600,29	1,1118E01
600,64	1,1474E01
600,99	1,1866E01
601,34	1,2336E01
601,69	1,2616E01
602,04	1,3305E01
602,39	1,4592E01
602,74	1,4944E01
603,09	1,5575E01
603,44	1,6769E01
603,80	1,6984E01
604,15	1,7856E01
604,50	1,8321E01
604,85	1,9341E01
605,20	2,0602E01
605,55	2,1809E01
605,90	2,1668E01
606,25	2,3459E01
606,60	2,4005E01
606,95	2,4669E01
607,30	2,6631E01
607,65	2,7630E01
608,00	2,8730E01
608,35	2,9885E01
608,70	3,1077E01
609,05	3,2675E01
609,40	3,3614E01
609,75	3,5323E01
610,10	3,7193E01
610,45	3,8325E01
610,80	3,9987E01
611,15	4,1505E01
611,50	4,3075E01
611,85	4,4799E01
612,20	4,7050E01
612,55	4,9421E01
612,90	5,1108E01
613,25	5,2771E01
613,60	5,5719E01
613,95	5,7401E01
614,30	6,0336E01
614,64	6,1386E01
614,99	6,4771E01
615,34	6,6673E01
615,69	6,8383E01
616,04	7,2491E01
616,39	7,4114E01
616,74	7,6864E01
617,09	7,8744E01
617,44	8,2575E01
617,79	8,5909E01
618,13	8,8599E01
618,48	9,1305E01
618,83	9,4968E01
619,18	9,8766E01
619,53	1,0262E02
619,88	1,0592E02
620,23	1,0849E02
620,57	1,1166E02
620,92	1,1527E02
621,27	1,1855E02
621,62	1,2104E02
621,97	1,2329E02
622,32	1,2585E02
622,66	1,2829E02
623,01	1,3016E02
623,36	1,3224E02
623,71	1,3470E02
624,06	1,3629E02
624,40	1,3799E02
624,75	1,3992E02
625,10	1,4069E02
625,45	1,4182E02
625,80	1,4280E02
626,14	1,4373E02
626,49	1,4330E02
626,84	1,4438E02
627,19	1,4361E02
627,53	1,4276E02
627,88	1,4152E02
628,23	1,4083E02
628,57	1,3919E02
628,92	1,3675E02
629,27	1,3392E02
629,62	1,3094E02
629,96	1,2734E02
630,31	1,2257E02
630,66	1,1636E02
631,00	1,1048E02
631,35	1,0453E02
631,70	9,9210E01
632,05	9,2341E01
632,39	8,5552E01
632,74	8,0498E01
633,09	7,5440E01
633,43	7,0283E01
633,78	6,5670E01
634,12	6,0925E01
634,47	5,7796E01
634,82	5,2754E01
635,16	5,0354E01
635,51	4,9047E01
635,86	4,4569E01
636,20	4,2180E01
636,55	3,9231E01
636,90	3,7751E01
637,24	3,4612E01
637,59	3,3141E01
637,93	3,0709E01
638,28	2,9075E01
638,63	2,7158E01
638,97	2,6010E01
639,32	2,3964E01
639,66	2,2939E01
640,01	2,0866E01
640,35	2,0059E01
640,70	1,8489E01
641,04	1,7367E01
641,39	1,6606E01
641,74	1,5713E01
642,08	1,4264E01
642,43	1,3634E01
642,77	1,2595E01
643,12	1,1761E01
643,46	1,0518E01
643,81	1,0141E01
644,15	9,3494E00
644,50	8,7633E00
644,84	8,6059E00
645,19	7,8268E00
645,53	7,3190E00
645,88	6,8756E00
646,22	6,2424E00
646,57	6,0236E00
646,91	5,4924E00
647,26	4,7256E00
647,60	5,2250E00
647,94	4,5194E00
648,29	3,9102E00
648,63	3,8131E00
648,98	3,7138E00
649,32	3,5528E00
649,67	2,9542E00
650,01	3,1261E00
650,36	2,6950E00
650,70	2,7338E00
651,04	2,4288E00
651,39	2,3063E00
651,73	1,9716E00
652,08	2,0926E00
652,42	1,7618E00
652,76	1,6307E00
653,11	1,2779E00
653,45	1,3524E00
653,79	1,2973E00
654,14	1,1632E00
654,48	1,1787E00
654,83	1,1880E00
655,17	7,3021E-01
655,51	8,5712E-01
655,86	7,7321E-01
656,20	5,7635E-01
656,54	7,1701E-01
656,89	5,6565E-01
657,23	7,3375E-01
657,57	3,1429E-01
657,91	2,4129E-01
658,26	3,3597E-01
658,60	1,8859E-01
658,94	2,1605E-01
659,29	4,0609E-02
659,63	1,6278E-01
659,97	2,7207E-02
660,32	-2,7265E-02
660,66	1,4342E-01
661,00	-2,8074E-01
661,34	-4,1181E-02
661,69	1,3759E-01
662,03	-1,6555E-01
662,37	-3,6645E-01
662,71	-3,9522E-01
663,06	-7,0874E-01
663,40	-4,8769E-01
663,74	-7,8900E-01
664,08	-8,4039E-01
664,42	-5,1986E-01
664,77	-5,4924E-01
665,11	-5,8587E-01
665,45	-3,8932E-01
665,79	-6,9544E-01
666,13	-9,0345E-01
666,48	-7,2741E-01
666,82	-7,0798E-01
667,16	-8,2472E-01
667,50	-9,4913E-01
667,84	-9,4435E-01
668,18	-7,5862E-01
668,53	-7,0983E-01
668,87	-8,7884E-01
669,21	-8,0843E-01
669,55	-9,8558E-01
669,89	-1,1060E00
670,23	-1,0135E00
670,57	-7,9568E-01
670,92	-1,3960E00
671,26	-8,2228E-01
671,60	-1,2924E00
671,94	-1,1101E00
672,28	-9,7160E-01
672,62	-7,5706E-01
672,96	-8,9411E-01
673,30	-1,0931E00
673,64	-1,0504E00
673,98	-9,3210E-01
674,33	-7,9790E-01
674,67	-1,3263E00
675,01	-1,0474E00
675,35	-6,8257E-01
675,69	-1,1385E00
676,03	-9,8737E-01
676,37	-1,1450E00
676,71	-9,1575E-01
677,05	-1,0273E00
677,39	-1,2493E00
677,73	-1,0417E00
678,07	-8,9571E-01
678,41	-1,0559E00
678,75	-1,2481E00
679,09	-1,2120E00
679,43	-1,2393E00
679,77	-1,1159E00
680,11	-1,0232E00
680,45	-1,3792E00
680,79	-1,2545E00
681,13	-1,3468E00
681,47	-1,5288E00
681,81	-1,1192E00
682,15	-1,1552E00
682,49	-1,3962E00
682,83	-1,3103E00
683,17	-1,3061E00
683,51	-1,3919E00
683,84	-1,1812E00
684,18	-1,3505E00
684,52	-1,0638E00
684,86	-1,4255E00
685,20	-1,3461E00
685,54	-1,0734E00
685,88	-1,0514E00
686,22	-1,5772E00
686,56	-1,2014E00
686,90	-1,2902E00
687,24	-1,2513E00
687,57	-1,2383E00
687,91	-1,3274E00
688,25	-1,2370E00
688,59	-1,2322E00
688,93	-1,5989E00
689,27	-1,3695E00
689,61	-1,6348E00
689,94	-1,3516E00
690,28	-1,1458E00
690,62	-1,3414E00
690,96	-1,1524E00
691,30	-1,5084E00
691,64	-1,7610E00
691,97	-1,5262E00
692,31	-1,3970E00
692,65	-1,2225E00
692,99	-1,1546E00
693,33	-1,4444E00
693,66	-1,3048E00
694,00	-1,1367E00
694,34	-1,7465E00
694,68	-1,4331E00
695,01	-1,1461E00
695,35	-1,1584E00
695,69	-1,7834E00
696,03	-1,0727E00
696,36	-1,5260E00
696,70	-1,2998E00
697,04	-1,8403E00
697,38	-1,5115E00
697,71	-1,8880E00
698,05	-1,3148E00
698,39	-1,2161E00
698,72	-1,5948E00
699,06	-1,6366E00
699,40	-1,7358E00
699,74	-1,5427E00
700,07	-1,6043E00
700,41	-1,3520E00
700,75	-1,7188E00
701,08	-1,2928E00
701,42	-1,4214E00
701,76	-1,3972E00
702,09	-1,2086E00
702,43	-1,7555E00
702,77	-1,5959E00
703,10	-1,0736E00
703,44	-1,2922E00
703,77	-1,4140E00
704,11	-1,4674E00
704,45	-1,8373E00
704,78	-1,6245E00
705,12	-1,4705E00
705,46	-1,7132E00
705,79	-1,7771E00
706,13	-1,5616E00
706,46	-1,7962E00
706,80	-1,4390E00
707,14	-1,6644E00
707,47	-1,4162E00
707,81	-1,7036E00
708,14	-1,6472E00
708,48	-1,8254E00
708,81	-1,8407E00
709,15	-1,9278E00
709,48	-1,3061E00
709,82	-1,0108E00
710,16	-1,3136E00
710,49	-1,6702E00
710,83	-1,5085E00
711,16	-1,8054E00
711,50	-1,8522E00
711,83	-1,5533E00
712,17	-1,6416E00
712,50	-1,2983E00
712,84	-1,5877E00
713,17	-2,0060E00
713,51	-1,7146E00
713,84	-1,7093E00
714,18	-1,6820E00
714,51	-2,2355E00
714,85	-1,8107E00
715,18	-1,7193E00
715,51	-1,4646E00
715,85	-1,8721E00
716,18	-1,7141E00
716,52	-1,5892E00
716,85	-1,8366E00
717,19	-1,8976E00
717,52	-1,9814E00
717,86	-1,9446E00
718,19	-1,9516E00
718,52	-1,2426E00
718,86	-1,3818E00
719,19	-1,6681E00
719,53	-1,8212E00
719,86	-1,3516E00
720,19	-1,7440E00
720,53	-2,0135E00
720,86	-1,6989E00
721,19	-1,5322E00
721,53	-1,7223E00
721,86	-1,9945E00
722,20	-1,5354E00
722,53	-1,9257E00
722,86	-1,9670E00
723,20	-1,8433E00
723,53	-1,7531E00
723,86	-2,3001E00
724,20	-2,1992E00
724,53	-1,7190E00
724,86	-1,7708E00
725,19	-1,5954E00
725,53	-1,9572E00
725,86	-2,2003E00
726,19	-1,9655E00
726,53	-2,2577E00
726,86	-1,9143E00
727,19	-1,5816E00
727,53	-1,8026E00
727,86	-2,2192E00
728,19	-1,3122E00
728,52	-2,1309E00
728,86	-1,7824E00
729,19	-1,6273E00
729,52	-2,1583E00
729,85	-2,1255E00
730,19	-1,7489E00
730,52	-1,4437E00
730,85	-1,9899E00
731,18	-2,2792E00
731,51	-1,3656E00
731,85	-1,9166E00
732,18	-1,7460E00
732,51	-1,4126E00
732,84	-1,7166E00
733,17	-1,9091E00
733,51	-2,2537E00
733,84	-1,8299E00
734,17	-2,0878E00
734,50	-2,0935E00
734,83	-1,4375E00
735,16	-1,9633E00
735,50	-2,2242E00
735,83	-2,0250E00
736,16	-2,1968E00
736,49	-1,7767E00
736,82	-1,9745E00
737,15	-2,0183E00
737,48	-2,2955E00
737,81	-1,4300E00
738,15	-2,0075E00
738,48	-2,0259E00
738,81	-2,2146E00
739,14	-1,9038E00
739,47	-1,9347E00
739,80	-2,0053E00
740,13	-2,6604E00
740,46	-1,9376E00
740,79	-1,9427E00
741,12	-2,4291E00
741,45	-1,9809E00
741,78	-2,2942E00
742,11	-1,9639E00
742,44	-1,8209E00
742,78	-2,2735E00
743,11	-2,3751E00
743,44	-1,8506E00
743,77	-2,3727E00
744,10	-2,1335E00
744,43	-2,0570E00
744,76	-1,9934E00
745,09	-2,2733E00
745,42	-2,2657E00
745,75	-2,3132E00
746,08	-2,2507E00
746,41	-2,0889E00
746,74	-2,3736E00
747,07	-2,0035E00
747,40	-2,0660E00
747,72	-2,2824E00
748,05	-1,5125E00
748,38	-2,0981E00
748,71	-2,7601E00
749,04	-1,8979E00
749,37	-2,2613E00
749,70	-1,9807E00
750,03	-2,2747E00
750,36	-2,5849E00
750,69	-2,0855E00
751,02	-2,3101E00
751,35	-2,4633E00
751,68	-2,4268E00
752,00	-2,5957E00
752,33	-2,3240E00
752,66	-2,6261E00
752,99	-2,5013E00
753,32	-2,4056E00
753,65	-2,6964E00
753,98	-2,9587E00
754,31	-2,7135E00
754,63	-2,6926E00
754,96	-2,4595E00
755,29	-2,5429E00
755,62	-2,3383E00
755,95	-2,4065E00
756,28	-2,0471E00
756,60	-2,7276E00
756,93	-2,5513E00
757,26	-2,6516E00
757,59	-2,0881E00
757,92	-2,5592E00
758,24	-2,4888E00
758,57	-2,2792E00
758,90	-2,6937E00
759,23	-3,0317E00
759,56	-2,4586E00
759,88	-3,0365E00
760,21	-2,7131E00
760,54	-2,4823E00
760,87	-2,2512E00
761,19	-3,0914E00
761,52	-2,6520E00
761,85	-2,3544E00
762,18	-2,3129E00
762,50	-1,9956E00
762,83	-2,4091E00
763,16	-2,5143E00
763,49	-2,7349E00
763,81	-2,7105E00
764,14	-2,1598E00
764,47	-2,5635E00
764,79	-2,8037E00
765,12	-1,9972E00
765,45	-2,2033E00
765,77	-2,6792E00
766,10	-2,6872E00
766,43	-2,7131E00
766,75	-3,1955E00
767,08	-2,6806E00
767,41	-2,2294E00
767,73	-2,8855E00
768,06	-2,6713E00
768,39	-2,3207E00
768,71	-2,7593E00
769,04	-2,4740E00
769,36	-2,8804E00
769,69	-3,0656E00
770,02	-2,5869E00
770,34	-2,8575E00
770,67	-2,0582E00
770,99	-2,9669E00
771,32	-2,9763E00
771,65	-2,9164E00
771,97	-2,0514E00
772,30	-3,8850E00
772,62	-2,2824E00
772,95	-2,7602E00
773,27	-2,6781E00
773,60	-2,9424E00
773,93	-2,9908E00
774,25	-3,0553E00
774,58	-2,9188E00
774,90	-3,1150E00
775,23	-3,0891E00
775,55	-3,2497E00
775,88	-3,0388E00
776,20	-3,0700E00
776,53	-2,7827E00
776,85	-2,9472E00
777,18	-2,5231E00
777,50	-3,1620E00
777,83	-3,4824E00
778,15	-2,9223E00
778,48	-3,0312E00
778,80	-2,7550E00
779,13	-3,2540E00
779,45	-3,0341E00
779,78	-3,0658E00
780,10	-1,8538E00
780,42	-3,4438E00
780,75	-3,1381E00
781,07	-2,7704E00
781,40	-2,5384E00
781,72	-3,3469E00
782,05	-2,4710E00
782,37	-2,8792E00
782,69	-3,6902E00
783,02	-3,5523E00
783,34	-2,9503E00
783,67	-2,6101E00
783,99	-2,5506E00
784,31	-3,3809E00
784,64	-3,1392E00
784,96	-2,9575E00
785,28	-3,4225E00
785,61	-2,8135E00
785,93	-3,9833E00
786,25	-3,0510E00
786,58	-3,5540E00
786,90	-3,1870E00
787,22	-3,5260E00
787,55	-3,6209E00
787,87	-3,5560E00
788,19	-2,6466E00
788,52	-3,0015E00
788,84	-3,4557E00
789,16	-3,0911E00
789,49	-3,2447E00
789,81	-3,0594E00
790,13	-3,5303E00
790,46	-3,7817E00
790,78	-3,0436E00
791,10	-3,0202E00
791,42	-2,8372E00
791,75	-3,2676E00
792,07	-3,4421E00
792,39	-2,9669E00
792,71	-2,5708E00
793,04	-3,3921E00
793,36	-3,4495E00
793,68	-4,8943E00
794,00	-3,4638E00
794,32	-2,1323E00
794,65	-3,5396E00
794,97	-2,7781E00
795,29	-3,1291E00
795,61	-2,9728E00
795,93	-2,6005E00
796,26	-3,2668E00
796,58	-2,9174E00
796,90	-2,6845E00
797,22	-3,8063E00
797,54	-2,8085E00
797,87	-2,3202E00
798,19	-3,2880E00
798,51	-3,3695E00
798,83	-2,5072E00
799,15	-2,6491E00
799,47	-3,3074E00
799,79	-2,9370E00
800,12	-3,2389E00
800,44	-2,9664E00
800,76	-2,8126E00
801,08	-2,8583E00
801,40	-3,0451E00
801,72	-3,9757E00
802,04	-3,6241E00
802,36	-2,8266E00
802,68	-4,1510E00
803,00	-3,5727E00
803,32	-3,1140E00
803,65	-3,0216E00
803,97	-3,0502E00
804,29	-2,9563E00
804,61	-3,7891E00
804,93	-3,9854E00
805,25	-3,6866E00
805,57	-3,1996E00
805,89	-3,1662E00
806,21	-2,5067E00
806,53	-3,2511E00
806,85	-3,4526E00
807,17	-3,3587E00
807,49	-2,6718E00
807,81	-3,0225E00
808,13	-2,6906E00
808,45	-2,9796E00
808,77	-2,7554E00
809,09	-4,0400E00
809,41	-3,5354E00
809,73	-3,4850E00
810,05	-3,4527E00
810,37	-2,7640E00
810,69	-3,5014E00
811,01	-3,7361E00
811,33	-3,4829E00
811,64	-3,6985E00
811,96	-4,0025E00
812,28	-4,1520E00
812,60	-3,6727E00
812,92	-3,8908E00
813,24	-3,7918E00
813,56	-4,2627E00
813,88	-4,2564E00
814,20	-4,7098E00
814,52	-3,5965E00
814,83	-4,2608E00
815,15	-4,6961E00
815,47	-2,9647E00
815,79	-3,8879E00
816,11	-2,9637E00
816,43	-3,8727E00
816,75	-4,0539E00
817,06	-2,8809E00
817,38	-4,2068E00
817,70	-3,4550E00
818,02	-4,2656E00
818,34	-3,7260E00
818,66	-3,3044E00
818,97	-4,0753E00
819,29	-3,8981E00
819,61	-4,2821E00
819,93	-4,2246E00
820,25	-3,4478E00
820,56	-3,7350E00
820,88	-4,0985E00
821,20	-3,6911E00
821,52	-3,3780E00
821,84	-3,8723E00
822,15	-4,2434E00
822,47	-4,4375E00
822,79	-4,6350E00
823,11	-4,0870E00
823,42	-4,5695E00
823,74	-4,3011E00
824,06	-4,2915E00
824,37	-3,7349E00
824,69	-4,4822E00
825,01	-4,6298E00
825,33	-3,8293E00
825,64	-5,7519E00
825,96	-4,6562E00
826,28	-4,2704E00
826,59	-5,8409E00
826,91	-5,0805E00
827,23	-3,9938E00
827,54	-4,7111E00
827,86	-4,5927E00
828,18	-4,4722E00
828,49	-4,4885E00
828,81	-4,8596E00
829,13	-4,4889E00
829,44	-4,2568E00
829,76	-4,0241E00
830,08	-4,9024E00
830,39	-4,3334E00
830,71	-3,8988E00
831,02	-5,6044E00
831,34	-4,5785E00
831,66	-4,2826E00
831,97	-4,4143E00
832,29	-5,1474E00
832,60	-3,8764E00
832,92	-3,8050E00
833,23	-4,1079E00
833,55	-4,5297E00
833,87	-4,6054E00
834,18	-4,8292E00
834,50	-4,6098E00
834,81	-3,9791E00
835,13	-4,6444E00
835,44	-4,2136E00
835,76	-4,7930E00
836,07	-5,2570E00
836,39	-4,4348E00
836,70	-4,0587E00
837,02	-4,9757E00
837,33	-4,0863E00
837,65	-5,2551E00
837,96	-4,5736E00
838,28	-5,8752E00
838,59	-5,3132E00
838,91	-6,0713E00
839,22	-6,2746E00
839,54	-5,0837E00
839,85	-4,5070E00
840,17	-4,4877E00
840,48	-3,6546E00
840,80	-4,6924E00
841,11	-5,6747E00
841,43	-5,9976E00
841,74	-4,7788E00
842,05	-6,2348E00
842,37	-4,2293E00
842,68	-5,7294E00
843,00	-4,7016E00
843,31	-5,5166E00
843,62	-4,4817E00
843,94	-5,2115E00
844,25	-5,1058E00
844,57	-5,6794E00
844,88	-5,1875E00
845,19	-4,3619E00
845,51	-7,1206E00
845,82	-5,5282E00
846,13	-5,9492E00
846,45	-6,0400E00
846,76	-5,5261E00
847,07	-4,9424E00
847,39	-4,1842E00
847,70	-5,1488E00
848,01	-5,1721E00
848,33	-5,6695E00
848,64	-4,4223E00
848,95	-4,7817E00
849,27	-6,5621E00
849,58	-5,4098E00
849,89	-4,7703E00
850,21	-6,1876E00
850,52	-6,3517E00
850,83	-4,8601E00
851,14	-4,4184E00
851,46	-5,8510E00
851,77	-6,1580E00
852,08	-6,9667E00
852,39	-5,0593E00
852,71	-7,5270E00
853,02	-6,4693E00
853,33	-4,9647E00
853,64	-5,9989E00
853,96	-5,6920E00
854,27	-5,1649E00
854,58	-5,2585E00
854,89	-6,5679E00
855,20	-5,4806E00
855,52	-5,7960E00
855,83	-4,6584E00
856,14	-6,4340E00
856,45	-5,7827E00
856,76	-5,4666E00
857,07	-5,4885E00
857,39	-6,6870E00
857,70	-6,9361E00
858,01	-6,4239E00
858,32	-6,7174E00
858,63	-6,2412E00
858,94	-8,1586E00
859,25	-7,1062E00
859,57	-6,8229E00
859,88	-6,3029E00
860,19	-6,2468E00
860,50	-7,2593E00
860,81	-6,0601E00
861,12	-6,0055E00
861,43	-7,1885E00
861,74	-7,0160E00
862,05	-5,6350E00
862,36	-5,3758E00
862,67	-4,8297E00
862,99	-5,7413E00
863,30	-6,0491E00
863,61	-6,3644E00
863,92	-6,3067E00
864,23	-6,7050E00
864,54	-6,3624E00
864,85	-6,7648E00
865,16	-6,3735E00
865,47	-6,7368E00
865,78	-8,9641E00
866,09	-7,4716E00
866,40	-6,3123E00
866,71	-7,0227E00
867,02	-6,4095E00
867,33	-8,3816E00
867,64	-4,9014E00
867,95	-4,3124E00
868,26	-4,7270E00
868,57	-7,5644E00
868,88	-7,7336E00
869,19	-7,6383E00
869,50	-6,3784E00
869,81	-7,5750E00
870,12	-7,6604E00
870,42	-6,4289E00
870,73	-8,0983E00
871,04	-6,8170E00
871,35	-6,2529E00
871,66	-7,2063E00
871,97	-8,4054E00
872,28	-7,1858E00
872,59	-6,5685E00
872,90	-1,0714E01
873,21	-7,1189E00
873,52	-8,9680E00
873,82	-9,4962E00
874,13	-8,4428E00
874,44	-6,9348E00
874,75	-8,9220E00
875,06	-7,5518E00
875,37	-8,2304E00
875,68	-6,7913E00
875,98	-8,9709E00
876,29	-7,6099E00
876,60	-7,6489E00
876,91	-7,6398E00
877,22	-9,0539E00
877,52	-9,3534E00
877,83	-8,5797E00
878,14	-7,3893E00
878,45	-9,0940E00
878,76	-8,7267E00
879,06	-7,8280E00
879,37	-9,2406E00
879,68	-9,4007E00
879,99	-8,4375E00
880,30	-8,6414E00
880,60	-1,0036E01
880,91	-8,9460E00
881,22	-1,1121E01
881,53	-9,6403E00
881,83	-7,8125E00
882,14	-1,1056E01
882,45	-9,9419E00
882,75	-9,3709E00
883,06	-1,0140E01
883,37	-6,8036E00
883,68	-8,0205E00
883,98	-7,7113E00
884,29	-9,1092E00
884,60	-9,5393E00
884,90	-1,1748E01
885,21	-9,9452E00
885,52	-8,7049E00
885,82	-8,8966E00
886,13	-6,7834E00
886,44	-7,6105E00
886,74	-9,2590E00
887,05	-9,6880E00
887,36	-8,8862E00
887,66	-9,8982E00
887,97	-8,9795E00
888,27	-9,2338E00
888,58	-1,1078E01
888,89	-8,8537E00
889,19	-7,3370E00
889,50	-9,1199E00
889,80	-9,4315E00
890,11	-8,0816E00
890,42	-1,2732E01
890,72	-1,0669E01
891,03	-9,0744E00
891,33	-1,0403E01
891,64	-8,5606E00
891,94	-7,8527E00
892,25	-9,1847E00
892,56	-1,0150E01
892,86	-7,2177E00
893,17	-9,3373E00
893,47	-1,0977E01
893,78	-8,2104E00
894,08	-1,0509E01
894,39	-8,3418E00
894,69	-9,1929E00
895,00	-1,0896E01
895,30	-1,0781E01
895,61	-9,8799E00
895,91	-1,0376E01
896,22	-8,9215E00
896,52	-1,0687E01
896,83	-7,6548E00
897,13	-1,1000E01
897,43	-9,6088E00
897,74	-9,2506E00
898,04	-1,0595E01
898,35	-8,3453E00
898,65	-1,1884E01
898,96	-1,0057E01
899,26	-1,2807E01
899,57	-9,9498E00
899,87	-1,1177E01
900,17	-9,7146E00
900,48	-8,7426E00
900,78	-8,0737E00
901,09	-9,9745E00
901,39	-1,1762E01
901,69	-1,0849E01
902,00	-1,1838E01
902,30	-1,0381E01
902,60	-8,1794E00
902,91	-1,0103E01
903,21	-1,0922E01
903,51	-1,1376E01
903,82	-9,1715E00
904,12	-1,0191E01
904,42	-1,0158E01
904,73	-9,6842E00
905,03	-1,1402E01
905,33	-1,0431E01
905,64	-1,0645E01
905,94	-1,1618E01
906,24	-1,0568E01
906,55	-1,0791E01
906,85	-9,0378E00
907,15	-8,4221E00
907,45	-1,1258E01
907,76	-1,0063E01
908,06	-1,0729E01
908,36	-9,6011E00
908,66	-9,8293E00
908,97	-1,1802E01
909,27	-1,2554E01
909,57	-1,1742E01
909,87	-1,1048E01
910,18	-1,0695E01
910,48	-1,2378E01
910,78	-8,9235E00
911,08	-1,3667E01
911,39	-1,0592E01
911,69	-1,2768E01
911,99	-1,3825E01
912,29	-1,1397E01
912,59	-1,1586E01
912,89	-1,3957E01
913,20	-1,1569E01
913,50	-1,2797E01
913,80	-1,3279E01
914,10	-1,4671E01
914,40	-1,3000E01
914,70	-1,1947E01
915,01	-1,2936E01
915,31	-1,2723E01
915,61	-1,1504E01
915,91	-1,3583E01
916,21	-1,1572E01
916,51	-1,1131E01
916,81	-1,1196E01
917,11	-1,2219E01
917,41	-1,2953E01
917,72	-1,0879E01
918,02	-1,3188E01
918,32	-1,5140E01
918,62	-1,2803E01
918,92	-1,1657E01
919,22	-1,1186E01
919,52	-1,6565E01
919,82	-1,3946E01
920,12	-1,3328E01
920,42	-1,4198E01
920,72	-1,2791E01
921,02	-1,2155E01
921,32	-1,1522E01
921,62	-1,2816E01
921,92	-1,4690E01
922,22	-1,5210E01
922,52	-1,4001E01
922,82	-1,5348E01
923,12	-1,3457E01
923,42	-1,4217E01
923,72	-1,2790E01
924,02	-1,4149E01
924,32	-1,7596E01
924,62	-1,4266E01
924,92	-1,3761E01
925,22	-1,4042E01
925,52	-1,1850E01
925,82	-1,4354E01
926,12	-1,2759E01
926,42	-1,5038E01
926,72	-1,2428E01
927,02	-1,6032E01
927,31	-1,6359E01
927,61	-1,5372E01
927,91	-1,3313E01
928,21	-1,3891E01
928,51	-1,8775E01
928,81	-1,3024E01
929,11	-1,6619E01
929,41	-1,3904E01
929,71	-1,3025E01
930,00	-1,7021E01
930,30	-1,5149E01
930,60	-1,3350E01
930,90	-1,5811E01
931,20	-1,9566E01
931,50	-1,8722E01
931,79	-1,8290E01
932,09	-1,5943E01
932,39	-1,9769E01
932,69	-1,8465E01
932,99	-1,6797E01
933,29	-1,5427E01
933,58	-2,0555E01
933,88	-1,7399E01
934,18	-1,6803E01
934,48	-2,3181E01
934,77	-1,4254E01
935,07	-2,1354E01
935,37	-2,4890E01
935,67	-2,3273E01
935,97	-1,9387E01
936,26	-2,0939E01
936,56	-2,2272E01
936,86	-1,9366E01
937,15	-1,9140E01
937,45	-1,8381E01
937,75	-1,6371E01
938,05	-2,1947E01
938,34	-2,0097E01
938,64	-2,6661E01
938,94	-1,6729E01
939,23	-2,4071E01
939,53	-1,8719E01
939,83	-1,8455E01
940,12	-2,3063E01
940,42	-4,2985E01
940,72	-2,6877E01
941,01	-2,2190E01
941,31	-2,6668E01
941,61	-3,1393E01
941,90	-2,6463E01
942,20	-3,1514E01
942,50	-2,6738E01
942,79	-2,4742E01
943,09	-2,0422E01
943,38	-2,5755E01
943,68	-3,3080E01
943,98	-2,6734E01
944,27	-3,1304E01
944,57	-2,8662E01
944,86	-3,1300E01
945,16	-4,0934E01
945,46	-3,0341E01
945,75	-3,5569E01
946,05	-3,4973E01
946,34	-3,2294E01
946,64	-2,8748E01
946,93	-2,7004E01
947,23	-2,9781E01
947,52	-3,6296E01
947,82	-3,1206E01
948,12	-3,0267E01
948,41	-3,7085E01
948,71	-3,8651E01
949,00	-3,5619E01
949,30	-3,8470E01
949,59	-3,6404E01
949,89	-3,5178E01
950,18	-3,1858E01
950,48	-2,4025E01
950,77	-3,7884E01
951,06	-3,1747E01
951,36	-3,7074E01
951,65	-3,2781E01
951,95	-3,6406E01
952,24	-3,4914E01
952,54	-3,9813E01
952,83	-3,8971E01
953,13	-3,1533E01
953,42	-3,4106E01
953,71	-2,5826E01
954,01	-4,1681E01
954,30	-2,5887E01
954,60	-2,9789E01
954,89	-3,3730E01
955,18	-3,7459E01
955,48	-3,1708E01
955,77	-2,9188E01
956,07	-3,5554E01
956,36	-3,3267E01
956,65	-3,7512E01
956,95	-3,0835E01
957,24	-2,5212E01
957,53	-3,7568E01
957,83	-2,9976E01
958,12	-3,7980E01
958,41	-2,5020E01
958,71	-3,0845E01
959,00	-3,0693E01
959,29	-4,2349E01
959,59	-3,7098E01
959,88	-4,5043E01
960,17	-3,4365E01
960,46	-4,1443E01
960,76	-2,8243E01
961,05	-3,6219E01
961,34	-3,5234E01
961,64	-4,1513E01
961,93	-3,5936E01
962,22	-4,0172E01
962,51	-3,4571E01
962,81	-4,1169E01
963,10	-3,5058E01
963,39	-3,2415E01
963,68	-3,9069E01
963,97	-2,7694E01
964,27	-3,4652E01
964,56	-4,1647E01
964,85	-5,4172E01
965,14	-3,6242E01
965,43	-4,1929E01
965,73	-4,2387E01
966,02	-4,5472E01
966,31	-3,8149E01
966,60	-3,5148E01
966,89	-3,9529E01
967,19	-4,1953E01
967,48	-4,5396E01
967,77	-4,8871E01
968,06	-4,3862E01
968,35	-4,3886E01
968,64	-3,4211E01
968,93	-4,2765E01
969,22	-3,7884E01
969,52	-3,6529E01
969,81	-3,7275E01
970,10	-4,7910E01
970,39	-4,8237E01
970,68	-4,4587E01
970,97	-4,9601E01
971,26	-3,8690E01
971,55	-4,3746E01
971,84	-4,8885E01
972,13	-4,2163E01
972,42	-4,2438E01
972,71	-5,0729E01
973,01	-4,5739E01
973,30	-4,5164E01
973,59	-4,7975E01
973,88	-3,3907E01
974,17	-3,4708E01
974,46	-4,6958E01
974,75	-4,5612E01
975,04	-4,7662E01
975,33	-4,9125E01
975,62	-5,0271E01
975,91	-4,8483E01
976,20	-4,5821E01
976,49	-4,9691E01
976,78	-4,9030E01
977,07	-5,2902E01
977,36	-5,9045E01
977,64	-4,0783E01
977,93	-4,4064E01
978,22	-4,5570E01
978,51	-4,6821E01
978,80	-5,0977E01
979,09	-6,2793E01
979,38	-5,2107E01
979,67	-5,2845E01
979,96	-6,2121E01
980,25	-5,1127E01
980,54	-4,4553E01
980,83	-5,5823E01
981,12	-5,4263E01
981,40	-5,3435E01
981,69	-3,8168E01
981,98	-4,3625E01
982,27	-6,9952E01
982,56	-5,9656E01
982,85	-5,1323E01
983,14	-4,2104E01
983,42	-5,3132E01
983,71	-4,7070E01
984,00	-6,5557E01
984,29	-5,2170E01
984,58	-6,1638E01
984,87	-6,2846E01
985,15	-6,5931E01
985,44	-4,8405E01
985,73	-7,0751E01
986,02	-6,4814E01
986,31	-5,4235E01
986,59	-7,4141E01
986,88	-4,1503E01
987,17	-6,7081E01
987,46	-7,3539E01
987,74	-5,9009E01
988,03	-7,3209E01
988,32	-1,0597E02
988,61	-7,5207E01
988,89	-6,4577E01
989,18	-5,7939E01
989,47	-5,0867E01
989,76	-6,0965E01
990,04	-6,4408E01
990,33	-7,1791E01
990,62	-6,2849E01
990,90	-5,9888E01
991,19	-9,0893E01
991,48	-7,2463E01
991,76	-6,9018E01
992,05	-7,6822E01
992,34	-7,6286E01
992,62	-8,1921E01
992,91	-4,6410E01
993,20	-6,1372E01
993,48	-8,0316E01
993,77	-6,1505E01
994,06	-7,6877E01
994,34	-8,0414E01
994,63	-7,7241E01
994,92	-7,9334E01
995,20	-7,0184E01
995,49	-7,8762E01
995,77	-6,9888E01
996,06	-8,0804E01
996,35	-8,5578E01
996,63	-5,4647E01
996,92	-8,6633E01
997,20	-8,5332E01
997,49	-6,6848E01
997,77	-9,8240E01
998,06	-8,6094E01
998,34	-9,0623E01
998,63	-9,5817E01
998,92	-8,6640E01
999,20	-1,0475E02
999,49	-1,1483E02
999,77	-9,1762E01
1000,06	-1,0204E02
1000,34	-7,3647E01
1000,63	-9,6761E01
1000,91	-9,3564E01
1001,20	-8,6692E01
1001,48	-8,0253E01
1001,77	-1,1243E02
1002,05	-1,1227E02
1002,34	-1,1597E02
1002,62	-1,0877E02
1002,90	-8,8156E01
1003,19	-1,0952E02
1003,47	-1,1518E02
1003,76	-9,3349E01
1004,04	-1,0960E02
1004,33	-1,2529E02
1004,61	-1,0015E02
1004,89	-1,0460E02
1005,18	-1,0219E02
1005,46	-1,2541E02
1005,75	-1,3660E02
1006,03	-1,4717E02
1006,31	-1,1987E02
1006,60	-1,0205E02
1006,88	-1,1990E02
1007,17	-1,2163E02
1007,45	-1,2298E02
1007,73	-1,1071E02
1008,02	-1,2920E02
1008,30	-1,1342E02
1008,58	-1,1855E02
1008,87	-9,3156E01
1009,15	-1,4691E02
1009,43	-1,3080E02
1009,72	-1,1391E02
1010,00	-1,5661E02
1010,28	-1,6024E02
1010,57	-9,7560E01
1010,85	-1,5735E02
1011,13	-1,2501E02
1011,41	-1,4277E02
1011,70	-1,2780E02
1011,98	-1,0098E02
1012,26	-1,4020E02
1012,55	-1,3472E02
1012,83	-1,1516E02
1013,11	-1,4943E02
1013,39	-1,4240E02
1013,68	-1,6179E02
1013,96	-1,4192E02
1014,24	-1,2530E02
1014,52	-1,5740E02
1014,80	-1,5125E02
1015,09	-1,6788E02
1015,37	-1,1696E02
1015,65	-1,7771E02
1015,93	-2,0169E02
1016,21	-1,6797E02
1016,50	-1,2798E02
1016,78	-1,7186E02
1017,06	-1,5125E02
1017,34	-1,7707E02
1017,62	-1,9942E02
1017,90	-1,8854E02
1018,19	-1,6794E02
1018,47	-1,9521E02
1018,75	-1,7549E02
1019,03	-1,5986E02
1019,31	-1,8625E02
1019,59	-2,3504E02
1019,87	-1,8586E02
1020,15	-2,0242E02
1020,44	-1,9710E02
1020,72	-2,0407E02
1021,00	-1,6731E02
1021,28	-1,9234E02
1021,56	-1,6465E02
1021,84	-2,1221E02
1022,12	-2,3158E02
1022,40	-2,5151E02
1022,68	-1,9904E02
1022,96	-2,1698E02
1023,24	-2,5404E02
1023,52	-2,1932E02
1023,80	-2,1944E02
1024,08	-2,1944E02
>>>>>End Processed Spectral Data<<<<<
