SpectraSuite Datei
++++++++++++++++++++++++++++++++++++
Datum: Thu Jan 20 12:16:44 CET 2022
Benutzer: RMV
Dark-Spektrum vorhanden: Ja
Referenz-Spektrum vorhanden: Nein
Zahl der probierten Teilspektren: 1
Spektrometer: USB2+H07983
Integrationszeit (usec): 3170 (USB2+H07983)
Spektren Durchschnitt berechnet: 1 (USB2+H07983)
Boxcar Glättung: 0 (USB2+H07983)
Dunkelstromkorrektur: Nein (USB2+H07983)
Puls/Lampe aktiviert: Nein (USB2+H07983)
Correct for Detector Non-linearity: Nein (USB2+H07983)
Streulichtkorrektur: Nein (USB2+H07983)
Anzahl Pixel in verarbeitetem Spektrum: 2048
>>>>>Begin Processed Spectral Data<<<<<
339,47	-0,0000E00
339,85	-0,0000E00
340,24	-0,0000E00
340,62	-0,0000E00
341,01	-0,0000E00
341,39	-0,0000E00
341,77	-0,0000E00
342,16	-0,0000E00
342,54	-0,0000E00
342,92	-0,0000E00
343,31	-0,0000E00
343,69	-0,0000E00
344,07	-0,0000E00
344,46	-0,0000E00
344,84	-0,0000E00
345,22	-0,0000E00
345,61	-0,0000E00
345,99	-0,0000E00
346,37	-0,0000E00
346,76	-0,0000E00
347,14	-0,0000E00
347,52	-0,0000E00
347,91	-0,0000E00
348,29	-0,0000E00
348,67	-6,6559E00
349,05	-4,9093E00
349,44	-6,2027E00
349,82	-5,6773E00
350,20	-4,1919E00
350,59	-4,2173E00
350,97	-5,0367E00
351,35	-4,3000E00
351,73	-3,7878E00
352,12	-3,6772E00
352,50	-4,8019E00
352,88	-4,4683E00
353,26	-3,3460E00
353,65	-3,8644E00
354,03	-4,0063E00
354,41	-4,2109E00
354,79	-3,6489E00
355,17	-4,2970E00
355,56	-4,3162E00
355,94	-4,0267E00
356,32	-3,8817E00
356,70	-4,0119E00
357,08	-4,0861E00
357,47	-4,6289E00
357,85	-4,4577E00
358,23	-4,7716E00
358,61	-4,6961E00
358,99	-4,3038E00
359,38	-3,7830E00
359,76	-5,1753E00
360,14	-5,6427E00
360,52	-3,7110E00
360,90	-3,1234E00
361,28	-3,7569E00
361,66	-4,1127E00
362,05	-3,8678E00
362,43	-3,3235E00
362,81	-5,7199E00
363,19	-4,0395E00
363,57	-3,7057E00
363,95	-4,9917E00
364,33	-4,5739E00
364,71	-4,6597E00
365,10	-4,1417E00
365,48	-4,9146E00
365,86	-4,8994E00
366,24	-5,2526E00
366,62	-3,5528E00
367,00	-4,4453E00
367,38	-3,2796E00
367,76	-3,9973E00
368,14	-5,1696E00
368,52	-4,7564E00
368,90	-4,1484E00
369,28	-4,3504E00
369,66	-3,9421E00
370,04	-5,1107E00
370,42	-3,3993E00
370,81	-5,0326E00
371,19	-4,1587E00
371,57	-5,7284E00
371,95	-5,2818E00
372,33	-4,8148E00
372,71	-5,3855E00
373,09	-4,5286E00
373,47	-2,9465E00
373,85	-3,7680E00
374,23	-4,4234E00
374,61	-5,0858E00
374,99	-3,4960E00
375,37	-3,7491E00
375,75	-4,4518E00
376,13	-4,8805E00
376,51	-2,7443E00
376,88	-3,8741E00
377,26	-4,1037E00
377,64	-2,8127E00
378,02	-3,9844E00
378,40	-3,6189E00
378,78	-4,3216E00
379,16	-3,7164E00
379,54	-3,3069E00
379,92	-3,6783E00
380,30	-3,5025E00
380,68	-3,0505E00
381,06	-3,9024E00
381,44	-3,7886E00
381,82	-3,4598E00
382,20	-3,2194E00
382,57	-3,1884E00
382,95	-2,8743E00
383,33	-3,0170E00
383,71	-3,0216E00
384,09	-4,1211E00
384,47	-4,1041E00
384,85	-3,6369E00
385,23	-3,4949E00
385,60	-2,8414E00
385,98	-3,1758E00
386,36	-2,4395E00
386,74	-3,6937E00
387,12	-3,2508E00
387,50	-3,4179E00
387,88	-3,9241E00
388,25	-3,1636E00
388,63	-3,0575E00
389,01	-2,8416E00
389,39	-2,8587E00
389,77	-3,0281E00
390,14	-3,8465E00
390,52	-2,8643E00
390,90	-2,3121E00
391,28	-3,3746E00
391,66	-3,6371E00
392,03	-3,1253E00
392,41	-2,8349E00
392,79	-2,8565E00
393,17	-2,8382E00
393,54	-3,3230E00
393,92	-3,2240E00
394,30	-3,2083E00
394,68	-2,8445E00
395,06	-2,5848E00
395,43	-2,9683E00
395,81	-2,0557E00
396,19	-2,4326E00
396,56	-2,3161E00
396,94	-2,1067E00
397,32	-3,1353E00
397,70	-2,6647E00
398,07	-2,4478E00
398,45	-2,6569E00
398,83	-2,1099E00
399,20	-2,6006E00
399,58	-2,9651E00
399,96	-2,6750E00
400,34	-3,0226E00
400,71	-2,1615E00
401,09	-3,4880E00
401,47	-2,9034E00
401,84	-2,9264E00
402,22	-3,0817E00
402,60	-2,1987E00
402,97	-2,8850E00
403,35	-2,2598E00
403,73	-2,2775E00
404,10	-2,7667E00
404,48	-3,3299E00
404,85	-2,4048E00
405,23	-2,1884E00
405,61	-2,7293E00
405,98	-2,6039E00
406,36	-2,5167E00
406,74	-2,5161E00
407,11	-2,0403E00
407,49	-2,0875E00
407,86	-2,8768E00
408,24	-1,5866E00
408,62	-2,5684E00
408,99	-2,4304E00
409,37	-2,2253E00
409,74	-1,7823E00
410,12	-2,3716E00
410,49	-2,2558E00
410,87	-2,2189E00
411,25	-2,2814E00
411,62	-2,2431E00
412,00	-1,5605E00
412,37	-1,6510E00
412,75	-2,4360E00
413,12	-2,0090E00
413,50	-2,2361E00
413,87	-1,6399E00
414,25	-1,8918E00
414,62	-1,6707E00
415,00	-1,8363E00
415,37	-1,3428E00
415,75	-1,6869E00
416,12	-1,6082E00
416,50	-1,8937E00
416,87	-4,1373E-01
417,25	-9,4515E-01
417,62	-1,4999E00
418,00	-1,3364E00
418,37	-1,2923E00
418,75	-1,3905E00
419,12	-1,1233E00
419,50	-1,1581E00
419,87	-8,1654E-01
420,25	-9,2962E-01
420,62	-3,9879E-01
420,99	-8,1881E-01
421,37	-8,2462E-01
421,74	-8,7011E-01
422,12	-3,0164E00
422,49	-1,9921E-01
422,87	-2,8521E-01
423,24	-3,3382E-01
423,61	5,4198E-01
423,99	1,7170E-01
424,36	3,4208E-01
424,74	2,3154E-01
425,11	8,6387E-01
425,48	8,0176E-01
425,86	7,6223E-01
426,23	5,3104E-01
426,60	5,5305E-01
426,98	9,5785E-01
427,35	1,0492E00
427,73	8,7798E-01
428,10	1,1841E00
428,47	1,9838E00
428,85	1,7534E00
429,22	1,6057E00
429,59	2,5955E00
429,97	2,4479E00
430,34	1,9285E00
430,71	2,7554E00
431,09	2,9998E00
431,46	3,1647E00
431,83	3,0942E00
432,21	3,0285E00
432,58	3,5612E00
432,95	3,4271E00
433,32	3,9079E00
433,70	4,3468E00
434,07	4,0385E00
434,44	4,4745E00
434,82	5,3919E00
435,19	5,3856E00
435,56	5,6194E00
435,93	5,7459E00
436,31	5,4307E00
436,68	5,6762E00
437,05	5,6136E00
437,42	5,6212E00
437,80	6,7448E00
438,17	6,0572E00
438,54	6,6581E00
438,91	6,9867E00
439,28	6,0370E00
439,66	6,1444E00
440,03	6,9339E00
440,40	7,0967E00
440,77	6,0107E00
441,14	6,3411E00
441,52	6,7232E00
441,89	6,7615E00
442,26	6,2574E00
442,63	5,5713E00
443,00	5,6842E00
443,38	5,3866E00
443,75	5,6039E00
444,12	4,9197E00
444,49	4,9716E00
444,86	5,1876E00
445,23	4,2546E00
445,60	4,2022E00
445,98	4,1680E00
446,35	3,6362E00
446,72	3,3291E00
447,09	3,4635E00
447,46	3,4946E00
447,83	3,1010E00
448,20	3,4278E00
448,57	3,2388E00
448,94	2,7583E00
449,32	2,8923E00
449,69	2,6336E00
450,06	2,2889E00
450,43	2,2414E00
450,80	2,3272E00
451,17	2,4501E00
451,54	1,9651E00
451,91	2,2067E00
452,28	1,9725E00
452,65	2,1258E00
453,02	2,3968E00
453,39	1,8440E00
453,76	1,9439E00
454,13	2,0961E00
454,50	1,8967E00
454,87	1,6615E00
455,24	1,3097E00
455,61	1,7716E00
455,98	1,7978E00
456,35	1,4614E00
456,72	1,3858E00
457,09	1,4029E00
457,46	1,3823E00
457,83	1,5114E00
458,20	1,1413E00
458,57	1,3578E00
458,94	1,7515E00
459,31	1,1794E00
459,68	1,2617E00
460,05	9,3303E-01
460,42	1,2150E00
460,79	1,0279E00
461,16	1,1506E00
461,53	1,1704E00
461,90	9,9592E-01
462,27	1,0930E00
462,64	6,7592E-01
463,01	9,0830E-01
463,38	1,1313E00
463,75	6,5081E-01
464,12	8,5581E-01
464,48	3,8027E-01
464,85	5,5128E-01
465,22	8,3534E-01
465,59	5,7061E-01
465,96	4,1330E-01
466,33	6,7674E-01
466,70	8,1707E-01
467,07	5,5905E-01
467,44	8,8957E-01
467,80	7,5785E-01
468,17	6,1964E-01
468,54	6,0853E-01
468,91	5,5828E-01
469,28	6,6296E-01
469,65	5,1308E-01
470,02	6,4641E-01
470,38	8,3764E-01
470,75	9,4954E-01
471,12	8,8797E-01
471,49	6,5985E-01
471,86	1,1840E00
472,22	1,0227E00
472,59	9,4889E-01
472,96	1,0242E00
473,33	1,1464E00
473,70	1,0298E00
474,06	1,2248E00
474,43	1,1188E00
474,80	1,2158E00
475,17	1,0689E00
475,54	1,1897E00
475,90	1,3741E00
476,27	1,4773E00
476,64	1,2343E00
477,01	1,2926E00
477,37	1,4514E00
477,74	1,4565E00
478,11	1,5213E00
478,48	1,4676E00
478,84	1,6087E00
479,21	1,7064E00
479,58	1,9158E00
479,94	1,6819E00
480,31	1,6326E00
480,68	2,0266E00
481,05	1,9077E00
481,41	2,2244E00
481,78	2,0511E00
482,15	2,1308E00
482,51	2,2787E00
482,88	2,3722E00
483,25	2,4240E00
483,61	2,4863E00
483,98	2,5234E00
484,35	2,5183E00
484,71	2,4478E00
485,08	2,4766E00
485,45	2,7485E00
485,81	2,5712E00
486,18	2,6409E00
486,54	2,8155E00
486,91	2,7528E00
487,28	3,2434E00
487,64	3,1644E00
488,01	3,0026E00
488,38	3,1169E00
488,74	3,4298E00
489,11	3,3841E00
489,47	3,4733E00
489,84	3,2881E00
490,20	3,5070E00
490,57	3,4620E00
490,94	3,4867E00
491,30	3,6909E00
491,67	3,8282E00
492,03	3,5792E00
492,40	4,0115E00
492,76	3,8009E00
493,13	3,9907E00
493,50	4,1446E00
493,86	4,0241E00
494,23	4,1238E00
494,59	4,5821E00
494,96	4,3916E00
495,32	4,4435E00
495,69	4,5470E00
496,05	4,5960E00
496,42	4,4775E00
496,78	4,6661E00
497,15	4,4458E00
497,51	4,6838E00
497,88	5,0200E00
498,24	4,9755E00
498,61	5,2135E00
498,97	5,1147E00
499,34	5,0900E00
499,70	5,2591E00
500,06	5,1682E00
500,43	5,1207E00
500,79	5,4033E00
501,16	5,3959E00
501,52	5,4122E00
501,89	5,3626E00
502,25	5,4847E00
502,62	5,7022E00
502,98	5,7434E00
503,34	5,7106E00
503,71	5,8070E00
504,07	5,6209E00
504,44	5,7735E00
504,80	5,9904E00
505,16	5,8473E00
505,53	6,0202E00
505,89	6,0360E00
506,26	6,1702E00
506,62	6,1852E00
506,98	6,0338E00
507,35	6,1066E00
507,71	6,0905E00
508,07	6,1018E00
508,44	6,2941E00
508,80	6,3117E00
509,16	6,5145E00
509,53	6,3937E00
509,89	6,6673E00
510,25	6,5736E00
510,62	6,6966E00
510,98	6,7280E00
511,34	6,5972E00
511,71	6,4815E00
512,07	6,7504E00
512,43	6,7395E00
512,80	6,7241E00
513,16	6,6294E00
513,52	6,7164E00
513,88	6,9080E00
514,25	6,9119E00
514,61	6,8268E00
514,97	6,9226E00
515,33	7,0754E00
515,70	7,0779E00
516,06	7,0597E00
516,42	7,1890E00
516,78	7,0912E00
517,15	7,1005E00
517,51	6,6886E00
517,87	7,1641E00
518,23	7,2822E00
518,60	7,2153E00
518,96	7,2273E00
519,32	7,3268E00
519,68	7,3630E00
520,04	7,5755E00
520,41	7,2346E00
520,77	7,5453E00
521,13	7,5342E00
521,49	7,3453E00
521,85	7,4470E00
522,22	7,4786E00
522,58	7,4777E00
522,94	7,7429E00
523,30	7,7666E00
523,66	7,6887E00
524,02	7,6937E00
524,38	7,8185E00
524,75	7,7208E00
525,11	7,6490E00
525,47	7,7286E00
525,83	7,6973E00
526,19	7,6835E00
526,55	7,6504E00
526,91	7,5970E00
527,27	7,9866E00
527,64	7,7799E00
528,00	7,9590E00
528,36	8,0263E00
528,72	7,8887E00
529,08	7,7631E00
529,44	7,9749E00
529,80	8,2100E00
530,16	8,2641E00
530,52	8,0833E00
530,88	7,8008E00
531,24	8,1247E00
531,60	7,9691E00
531,96	7,8822E00
532,32	7,8546E00
532,68	8,1411E00
533,04	8,2770E00
533,40	8,0892E00
533,77	8,2027E00
534,13	8,0108E00
534,49	8,4879E00
534,85	8,1460E00
535,21	7,9450E00
535,57	8,1353E00
535,93	8,2194E00
536,29	8,2017E00
536,65	8,3348E00
537,00	8,3188E00
537,36	8,1719E00
537,72	8,3044E00
538,08	8,3920E00
538,44	8,1671E00
538,80	8,4978E00
539,16	8,3540E00
539,52	8,4141E00
539,88	8,3778E00
540,24	8,3932E00
540,60	8,4948E00
540,96	8,4455E00
541,32	8,4679E00
541,68	8,3648E00
542,04	8,5086E00
542,40	8,5077E00
542,75	8,4026E00
543,11	8,5021E00
543,47	8,3433E00
543,83	8,4131E00
544,19	8,6780E00
544,55	8,7962E00
544,91	8,5600E00
545,27	8,7879E00
545,63	8,2284E00
545,98	8,5772E00
546,34	8,9124E00
546,70	8,7320E00
547,06	8,8328E00
547,42	8,5520E00
547,78	8,5329E00
548,13	8,7165E00
548,49	8,6109E00
548,85	8,8363E00
549,21	8,8713E00
549,57	8,7517E00
549,93	8,9947E00
550,28	8,7621E00
550,64	9,0632E00
551,00	8,9363E00
551,36	8,7560E00
551,71	8,8125E00
552,07	9,0445E00
552,43	9,0832E00
552,79	9,0345E00
553,15	8,6252E00
553,50	8,9615E00
553,86	8,9619E00
554,22	8,6977E00
554,58	8,7401E00
554,93	8,9061E00
555,29	8,8565E00
555,65	9,0769E00
556,01	8,9295E00
556,36	9,0400E00
556,72	8,7586E00
557,08	9,0402E00
557,43	9,1648E00
557,79	8,7169E00
558,15	9,0573E00
558,50	8,7485E00
558,86	9,1330E00
559,22	8,9862E00
559,58	9,2270E00
559,93	9,1276E00
560,29	9,1421E00
560,65	8,9931E00
561,00	9,1515E00
561,36	9,1180E00
561,71	9,1751E00
562,07	8,9833E00
562,43	9,0848E00
562,78	9,3001E00
563,14	9,2549E00
563,50	9,3056E00
563,85	8,9602E00
564,21	9,2351E00
564,57	9,3115E00
564,92	8,9569E00
565,28	9,2028E00
565,63	9,2674E00
565,99	9,2276E00
566,35	8,8463E00
566,70	9,3625E00
567,06	8,9364E00
567,41	9,1191E00
567,77	9,3617E00
568,12	9,3053E00
568,48	8,8272E00
568,83	9,0572E00
569,19	9,2874E00
569,55	9,2206E00
569,90	9,3071E00
570,26	9,3359E00
570,61	8,9647E00
570,97	9,0852E00
571,32	9,0268E00
571,68	9,4682E00
572,03	9,3833E00
572,39	9,2997E00
572,74	9,0554E00
573,10	9,0568E00
573,45	8,9957E00
573,81	9,5012E00
574,16	9,1523E00
574,52	9,0117E00
574,87	9,4637E00
575,23	9,2721E00
575,58	9,3115E00
575,94	9,1127E00
576,29	9,6082E00
576,64	9,3161E00
577,00	9,2763E00
577,35	9,4262E00
577,71	9,2000E00
578,06	9,3721E00
578,42	9,2805E00
578,77	9,3729E00
579,12	9,3580E00
579,48	9,5282E00
579,83	9,6165E00
580,19	9,2446E00
580,54	9,0587E00
580,89	9,1741E00
581,25	9,3971E00
581,60	9,5882E00
581,96	9,5563E00
582,31	9,4923E00
582,66	9,7122E00
583,02	9,4511E00
583,37	9,2335E00
583,72	9,1973E00
584,08	9,6243E00
584,43	9,5994E00
584,78	9,7249E00
585,14	9,3534E00
585,49	9,4803E00
585,84	9,5851E00
586,20	9,5093E00
586,55	9,5816E00
586,90	9,4939E00
587,26	9,5805E00
587,61	9,6730E00
587,96	9,7455E00
588,32	9,6571E00
588,67	9,9342E00
589,02	1,0075E01
589,37	9,9472E00
589,73	9,7134E00
590,08	9,3902E00
590,43	9,5912E00
590,78	1,0175E01
591,14	1,0219E01
591,49	9,8219E00
591,84	1,0103E01
592,19	9,8468E00
592,55	9,8071E00
592,90	1,0034E01
593,25	1,0080E01
593,60	1,0227E01
593,96	1,0262E01
594,31	1,0250E01
594,66	1,0313E01
595,01	1,0122E01
595,36	1,0667E01
595,72	1,0446E01
596,07	1,0126E01
596,42	1,0183E01
596,77	1,0071E01
597,12	1,0452E01
597,47	1,0246E01
597,83	1,0614E01
598,18	1,0452E01
598,53	1,0350E01
598,88	1,0349E01
599,23	1,0592E01
599,58	1,0510E01
599,93	1,0442E01
600,29	1,0838E01
600,64	1,0737E01
600,99	1,0668E01
601,34	1,0597E01
601,69	1,0736E01
602,04	1,0659E01
602,39	1,1052E01
602,74	1,0806E01
603,09	1,0871E01
603,44	1,1297E01
603,80	1,1065E01
604,15	1,0987E01
604,50	1,1062E01
604,85	1,1050E01
605,20	1,1325E01
605,55	1,1105E01
605,90	1,0811E01
606,25	1,1260E01
606,60	1,1190E01
606,95	1,1278E01
607,30	1,1090E01
607,65	1,1427E01
608,00	1,1423E01
608,35	1,1087E01
608,70	1,1240E01
609,05	1,1233E01
609,40	1,1507E01
609,75	1,1397E01
610,10	1,1727E01
610,45	1,1654E01
610,80	1,1782E01
611,15	1,1584E01
611,50	1,1839E01
611,85	1,1656E01
612,20	1,1561E01
612,55	1,1789E01
612,90	1,1732E01
613,25	1,1762E01
613,60	1,1591E01
613,95	1,1807E01
614,30	1,2023E01
614,64	1,1670E01
614,99	1,1415E01
615,34	1,1731E01
615,69	1,2037E01
616,04	1,2111E01
616,39	1,1867E01
616,74	1,2123E01
617,09	1,2244E01
617,44	1,2101E01
617,79	1,2117E01
618,13	1,2281E01
618,48	1,2119E01
618,83	1,1852E01
619,18	1,1965E01
619,53	1,1872E01
619,88	1,2424E01
620,23	1,2014E01
620,57	1,2292E01
620,92	1,2360E01
621,27	1,2434E01
621,62	1,1940E01
621,97	1,2384E01
622,32	1,2139E01
622,66	1,2429E01
623,01	1,2319E01
623,36	1,2532E01
623,71	1,2513E01
624,06	1,2519E01
624,40	1,2231E01
624,75	1,1978E01
625,10	1,2460E01
625,45	1,2419E01
625,80	1,2627E01
626,14	1,2750E01
626,49	1,2348E01
626,84	1,2563E01
627,19	1,2342E01
627,53	1,2634E01
627,88	1,2186E01
628,23	1,2443E01
628,57	1,2550E01
628,92	1,2598E01
629,27	1,2721E01
629,62	1,2328E01
629,96	1,2753E01
630,31	1,2281E01
630,66	1,2891E01
631,00	1,2523E01
631,35	1,2207E01
631,70	1,2648E01
632,05	1,2378E01
632,39	1,2175E01
632,74	1,2437E01
633,09	1,2503E01
633,43	1,2744E01
633,78	1,2438E01
634,12	1,2363E01
634,47	1,2538E01
634,82	1,2545E01
635,16	1,2705E01
635,51	1,2503E01
635,86	1,2208E01
636,20	1,2301E01
636,55	1,2277E01
636,90	1,2797E01
637,24	1,2569E01
637,59	1,2290E01
637,93	1,2387E01
638,28	1,2439E01
638,63	1,2525E01
638,97	1,2566E01
639,32	1,2014E01
639,66	1,2352E01
640,01	1,2557E01
640,35	1,2252E01
640,70	1,2674E01
641,04	1,2484E01
641,39	1,2269E01
641,74	1,2102E01
642,08	1,2213E01
642,43	1,2107E01
642,77	1,1938E01
643,12	1,2516E01
643,46	1,1935E01
643,81	1,1737E01
644,15	1,2275E01
644,50	1,1715E01
644,84	1,1900E01
645,19	1,1774E01
645,53	1,1866E01
645,88	1,2032E01
646,22	1,1849E01
646,57	1,2177E01
646,91	1,1761E01
647,26	1,1565E01
647,60	1,2084E01
647,94	1,1814E01
648,29	1,1612E01
648,63	1,1703E01
648,98	1,1790E01
649,32	1,1498E01
649,67	1,1285E01
650,01	1,1604E01
650,36	1,1549E01
650,70	1,1503E01
651,04	1,1422E01
651,39	1,1737E01
651,73	1,1605E01
652,08	1,1287E01
652,42	1,0880E01
652,76	1,1098E01
653,11	1,0892E01
653,45	1,1236E01
653,79	1,1096E01
654,14	1,1129E01
654,48	1,1224E01
654,83	1,1060E01
655,17	1,0710E01
655,51	1,1307E01
655,86	1,1175E01
656,20	1,0778E01
656,54	1,0815E01
656,89	1,0574E01
657,23	1,0626E01
657,57	1,0458E01
657,91	1,0590E01
658,26	1,0946E01
658,60	1,0474E01
658,94	1,0816E01
659,29	1,0660E01
659,63	1,0126E01
659,97	9,9510E00
660,32	9,9244E00
660,66	1,0033E01
661,00	9,9354E00
661,34	1,0261E01
661,69	1,0354E01
662,03	9,8572E00
662,37	9,8941E00
662,71	9,8319E00
663,06	9,2762E00
663,40	9,6076E00
663,74	9,8241E00
664,08	9,3984E00
664,42	9,5471E00
664,77	9,2032E00
665,11	9,6280E00
665,45	9,4499E00
665,79	9,3388E00
666,13	8,9562E00
666,48	9,4064E00
666,82	9,5327E00
667,16	9,6098E00
667,50	9,0814E00
667,84	8,8308E00
668,18	9,1829E00
668,53	9,1263E00
668,87	8,8974E00
669,21	9,0020E00
669,55	8,7753E00
669,89	8,6942E00
670,23	8,7914E00
670,57	8,9882E00
670,92	8,3241E00
671,26	8,1635E00
671,60	8,0962E00
671,94	8,4411E00
672,28	8,3932E00
672,62	8,5376E00
672,96	8,5278E00
673,30	8,1339E00
673,64	8,3122E00
673,98	7,7221E00
674,33	7,9334E00
674,67	7,7212E00
675,01	7,8593E00
675,35	7,9301E00
675,69	7,8773E00
676,03	8,0147E00
676,37	6,9240E00
676,71	7,4890E00
677,05	7,5181E00
677,39	7,4177E00
677,73	7,3075E00
678,07	7,3621E00
678,41	7,4541E00
678,75	7,5676E00
679,09	7,1688E00
679,43	7,0226E00
679,77	6,8388E00
680,11	6,9867E00
680,45	6,4308E00
680,79	6,3607E00
681,13	6,5886E00
681,47	6,4628E00
681,81	6,7882E00
682,15	6,4511E00
682,49	6,1891E00
682,83	6,3302E00
683,17	6,3250E00
683,51	6,4405E00
683,84	6,1867E00
684,18	6,3880E00
684,52	6,6904E00
684,86	5,9854E00
685,20	6,2708E00
685,54	6,4993E00
685,88	5,9717E00
686,22	6,1655E00
686,56	5,9815E00
686,90	5,7975E00
687,24	5,5246E00
687,57	5,8498E00
687,91	5,8406E00
688,25	6,1165E00
688,59	5,4977E00
688,93	5,5399E00
689,27	5,3740E00
689,61	5,3218E00
689,94	5,6508E00
690,28	5,4140E00
690,62	5,2080E00
690,96	4,9969E00
691,30	5,4073E00
691,64	4,7077E00
691,97	4,9868E00
692,31	5,0275E00
692,65	4,8810E00
692,99	4,8781E00
693,33	4,8716E00
693,66	4,7691E00
694,00	4,8084E00
694,34	4,4251E00
694,68	4,6439E00
695,01	4,2933E00
695,35	4,6334E00
695,69	4,3807E00
696,03	4,4008E00
696,36	4,1000E00
696,70	4,4893E00
697,04	3,7730E00
697,38	3,9780E00
697,71	3,9714E00
698,05	4,0283E00
698,39	4,4153E00
698,72	3,8557E00
699,06	4,1761E00
699,40	3,3866E00
699,74	3,5586E00
700,07	3,5408E00
700,41	3,7798E00
700,75	3,5712E00
701,08	3,9935E00
701,42	3,5919E00
701,76	3,7290E00
702,09	3,7901E00
702,43	3,5498E00
702,77	3,7854E00
703,10	3,3866E00
703,44	3,2305E00
703,77	3,2698E00
704,11	3,1318E00
704,45	3,0720E00
704,78	3,3283E00
705,12	2,8415E00
705,46	2,9084E00
705,79	2,5858E00
706,13	2,9730E00
706,46	2,5488E00
706,80	2,8278E00
707,14	2,6832E00
707,47	2,7110E00
707,81	3,0624E00
708,14	2,8673E00
708,48	2,5189E00
708,81	2,7816E00
709,15	2,5636E00
709,48	2,7357E00
709,82	2,6198E00
710,16	2,7307E00
710,49	2,3652E00
710,83	2,3617E00
711,16	1,9620E00
711,50	2,2813E00
711,83	2,6343E00
712,17	2,4835E00
712,50	2,5543E00
712,84	2,0217E00
713,17	2,4518E00
713,51	2,3109E00
713,84	2,0939E00
714,18	1,9498E00
714,51	1,7089E00
714,85	1,7675E00
715,18	1,6112E00
715,51	1,6490E00
715,85	1,5129E00
716,18	1,9215E00
716,52	1,4576E00
716,85	1,7596E00
717,19	1,4011E00
717,52	1,5497E00
717,86	1,5779E00
718,19	1,2267E00
718,52	1,5897E00
718,86	1,7862E00
719,19	1,4653E00
719,53	1,3009E00
719,86	1,1131E00
720,19	1,3108E00
720,53	5,3770E-01
720,86	1,4004E00
721,19	1,7857E00
721,53	1,4565E00
721,86	1,0784E00
722,20	1,0468E00
722,53	1,1787E00
722,86	1,2294E00
723,20	7,7488E-01
723,53	6,0007E-01
723,86	1,3565E00
724,20	6,3848E-01
724,53	1,0314E00
724,86	9,6264E-01
725,19	1,0953E00
725,53	1,0144E00
725,86	3,8266E-01
726,19	6,3519E-01
726,53	8,0460E-01
726,86	3,3712E-01
727,19	9,5380E-01
727,53	1,0041E00
727,86	2,4253E-01
728,19	8,2621E-01
728,52	-6,0884E-02
728,86	2,0754E-01
729,19	8,8093E-01
729,52	0,0000E00
729,85	1,4743E-01
730,19	3,0790E-01
730,52	9,9948E-01
730,85	4,6965E-01
731,18	-2,1058E-01
731,51	3,6002E-01
731,85	2,6136E-01
732,18	4,4898E-01
732,51	3,6254E-01
732,84	-7,5179E-02
733,17	1,3816E-01
733,51	-2,0144E-01
733,84	1,8930E-01
734,17	-3,6694E-01
734,50	1,2688E-01
734,83	1,2721E-02
735,16	1,2749E-01
735,50	-5,6245E-01
735,83	3,8450E-02
736,16	-3,2116E-01
736,49	2,1887E-01
736,82	-2,1938E-01
737,15	-2,1995E-01
737,48	-1,0375E-01
737,81	2,4700E-01
738,15	-1,3036E-01
738,48	-6,5352E-02
738,81	-3,0139E-01
739,14	-1,1816E-01
739,47	-4,7381E-01
739,80	-3,0344E-01
740,13	-6,3533E-01
740,46	-6,6357E-02
740,79	-6,5201E-01
741,12	-5,2052E-01
741,45	-3,0784E-01
741,78	-3,0858E-01
742,11	-4,5735E-01
742,44	-1,3488E-01
742,78	-4,8717E-01
743,11	-5,1574E-01
743,44	-9,7975E-01
743,77	-7,3636E-01
744,10	-6,8383E-01
744,43	-3,5654E-01
744,76	-5,4989E-01
745,09	-6,6132E-01
745,42	-3,7301E-01
745,75	-6,9258E-02
746,08	-6,9466E-01
746,41	-9,4696E-01
746,74	-1,2566E00
747,07	-9,1070E-01
747,40	-1,2087E00
747,72	-6,6219E-01
748,05	-6,0781E-01
748,38	-9,2148E-01
748,71	-1,1240E00
749,04	-2,9967E-01
749,37	-9,3027E-01
749,70	-7,0330E-01
750,03	-7,4865E-01
750,36	-1,2997E00
750,69	-1,7234E00
751,02	-1,4674E00
751,35	-1,2535E00
751,68	-1,3450E00
752,00	-1,2172E00
752,33	-1,2208E00
752,66	-1,4606E00
752,99	-1,2581E00
753,32	-1,5444E00
753,65	-1,2365E00
753,98	-1,3299E00
754,31	-1,4392E00
754,63	-1,9555E00
754,96	-1,0411E00
755,29	-1,0293E00
755,62	-1,4577E00
755,95	-1,2489E00
756,28	-1,5277E00
756,60	-1,4098E00
756,93	-1,1834E00
757,26	-1,7729E00
757,59	-9,1260E-01
757,92	-1,4270E00
758,24	-1,6177E00
758,57	-1,6703E00
758,90	-1,2059E00
759,23	-1,5237E00
759,56	-2,1434E00
759,88	-2,0876E00
760,21	-1,6977E00
760,54	-1,6867E00
760,87	-8,7815E-01
761,19	-2,0182E00
761,52	-1,8645E00
761,85	-1,5804E00
762,18	-1,7145E00
762,50	-1,2817E00
762,83	-1,4813E00
763,16	-1,1918E00
763,49	-2,3746E00
763,81	-2,1848E00
764,14	-1,3684E00
764,47	-1,8854E00
764,79	-1,7088E00
765,12	-1,3814E00
765,45	-1,9529E00
765,77	-1,5908E00
766,10	-1,7803E00
766,43	-1,9885E00
766,75	-2,3332E00
767,08	-1,1876E00
767,41	-1,2764E00
767,73	-2,1342E00
768,06	-1,8322E00
768,39	-1,8394E00
768,71	-1,9488E00
769,04	-2,0761E00
769,36	-2,3425E00
769,69	-1,7070E00
770,02	-1,6430E00
770,34	-2,6121E00
770,67	-1,6887E00
770,99	-1,9780E00
771,32	-2,0551E00
771,65	-2,2585E00
771,97	-2,0514E00
772,30	-3,0078E00
772,62	-1,9409E00
772,95	-1,9484E00
773,27	-1,9543E00
773,60	-2,7608E00
773,93	-2,5531E00
774,25	-2,0307E00
774,58	-2,1111E00
774,90	-3,0044E00
775,23	-2,3677E00
775,55	-2,6184E00
775,88	-2,6100E00
776,20	-3,2572E00
776,53	-2,6135E00
776,85	-3,2306E00
777,18	-2,2765E00
777,50	-2,8763E00
777,83	-3,1188E00
778,15	-2,9415E00
778,48	-2,5678E00
778,80	-2,6579E00
779,13	-3,2735E00
779,45	-2,8775E00
779,78	-1,9063E00
780,10	-1,8143E00
780,42	-2,4740E00
780,75	-2,6813E00
781,07	-2,5711E00
781,40	-2,7183E00
781,72	-2,6855E00
782,05	-1,9487E00
782,37	-1,4295E00
782,69	-2,9441E00
783,02	-3,2495E00
783,34	-1,5762E00
783,67	-2,3875E00
783,99	-2,4899E00
784,31	-2,3282E00
784,64	-2,5113E00
784,96	-3,0790E00
785,28	-2,6124E00
785,61	-2,8742E00
785,93	-3,7003E00
786,25	-2,6873E00
786,58	-3,2309E00
786,90	-2,7029E00
787,22	-3,5058E00
787,55	-2,7760E00
787,87	-3,7167E00
788,19	-2,3057E00
788,52	-2,7814E00
788,84	-2,8165E00
789,16	-3,1908E00
789,49	-2,6874E00
789,81	-2,9203E00
790,13	-3,3915E00
790,46	-3,4847E00
790,78	-2,6483E00
791,10	-3,1387E00
791,42	-2,2855E00
791,75	-2,6771E00
792,07	-3,2848E00
792,39	-2,6132E00
792,71	-2,6886E00
793,04	-3,1764E00
793,36	-2,6459E00
793,68	-3,5826E00
794,00	-3,0528E00
794,32	-2,4649E00
794,65	-2,6596E00
794,97	-2,5824E00
795,29	-2,7575E00
795,61	-2,5621E00
795,93	-2,8938E00
796,26	-2,5039E00
796,58	-3,0936E00
796,90	-2,3318E00
797,22	-2,6487E00
797,54	-2,3764E00
797,87	-2,2808E00
798,19	-3,2880E00
798,51	-3,4483E00
798,83	-2,7046E00
799,15	-3,1829E00
799,47	-3,6639E00
799,79	-2,5997E00
800,12	-4,0536E00
800,44	-3,2451E00
800,76	-2,6330E00
801,08	-2,4785E00
801,40	-2,6644E00
801,72	-3,4536E00
802,04	-2,7382E00
802,36	-3,3919E00
802,68	-3,2601E00
803,00	-2,9434E00
803,32	-2,7069E00
803,65	-3,7361E00
803,97	-2,9888E00
804,29	-3,0179E00
804,61	-2,9242E00
804,93	-3,3040E00
805,25	-2,9824E00
805,57	-2,8880E00
805,89	-3,7911E00
806,21	-2,9454E00
806,53	-3,2721E00
806,85	-4,0211E00
807,17	-2,9996E00
807,49	-2,6718E00
807,81	-2,5329E00
808,13	-3,6942E00
808,45	-3,7727E00
808,77	-2,6693E00
809,09	-3,3919E00
809,41	-3,2534E00
809,73	-2,5484E00
810,05	-3,6275E00
810,37	-2,7859E00
810,69	-3,1711E00
811,01	-3,2055E00
811,33	-3,0614E00
811,64	-3,3866E00
811,96	-4,0696E00
812,28	-3,6358E00
812,60	-3,8980E00
812,92	-3,5063E00
813,24	-3,5420E00
813,56	-3,8296E00
813,88	-3,8673E00
814,20	-4,2962E00
814,52	-3,7118E00
814,83	-3,7050E00
815,15	-4,3938E00
815,47	-2,4978E00
815,79	-3,9582E00
816,11	-2,7990E00
816,43	-3,3296E00
816,75	-3,2241E00
817,06	-3,1667E00
817,38	-3,2507E00
817,70	-3,7669E00
818,02	-3,7836E00
818,34	-3,3147E00
818,66	-3,0857E00
818,97	-3,4652E00
819,29	-3,9226E00
819,61	-4,4543E00
819,93	-3,9281E00
820,25	-4,1671E00
820,56	-3,2619E00
820,88	-4,7982E00
821,20	-3,2643E00
821,52	-3,4284E00
821,84	-4,1000E00
822,15	-4,2689E00
822,47	-4,0294E00
822,79	-4,5070E00
823,11	-4,4983E00
823,42	-4,4146E00
823,74	-4,3529E00
824,06	-4,9418E00
824,37	-3,6565E00
824,69	-4,8754E00
825,01	-4,7876E00
825,33	-3,8557E00
825,64	-4,7977E00
825,96	-4,5232E00
826,28	-4,9910E00
826,59	-4,7156E00
826,91	-5,2687E00
827,23	-4,4256E00
827,54	-4,3591E00
827,86	-5,2721E00
828,18	-4,9358E00
828,49	-4,1327E00
828,81	-4,9968E00
829,13	-4,1860E00
829,44	-3,8975E00
829,76	-3,6078E00
830,08	-4,8745E00
830,39	-4,8087E00
830,71	-3,3098E00
831,02	-4,7877E00
831,34	-4,2394E00
831,66	-4,2543E00
831,97	-3,8447E00
832,29	-4,2609E00
832,60	-3,9626E00
832,92	-3,7761E00
833,23	-3,3558E00
833,55	-5,3428E00
833,87	-4,6637E00
834,18	-4,7414E00
834,50	-3,9932E00
834,81	-4,1854E00
835,13	-4,1415E00
835,44	-4,6883E00
835,76	-4,6740E00
836,07	-5,7349E00
836,39	-5,4536E00
836,70	-4,3894E00
837,02	-4,3122E00
837,33	-4,0257E00
837,65	-5,1944E00
837,96	-3,9028E00
838,28	-5,2632E00
838,59	-4,6068E00
838,91	-5,7323E00
839,22	-5,6564E00
839,54	-4,9907E00
839,85	-3,6367E00
840,17	-5,3291E00
840,48	-4,6542E00
840,80	-4,6299E00
841,11	-5,5806E00
841,43	-5,5893E00
841,74	-4,9045E00
842,05	-5,0697E00
842,37	-3,6928E00
842,68	-5,5078E00
843,00	-5,2417E00
843,31	-4,9745E00
843,62	-4,3536E00
843,94	-6,1123E00
844,25	-4,8796E00
844,57	-4,7058E00
844,88	-4,7960E00
845,19	-3,0501E00
845,51	-5,9009E00
845,82	-4,9655E00
846,13	-5,3178E00
846,45	-6,6740E00
846,76	-5,8611E00
847,07	-6,2536E00
847,39	-4,4879E00
847,70	-4,8778E00
848,01	-5,8867E00
848,33	-6,8990E00
848,64	-4,2852E00
848,95	-5,0569E00
849,27	-5,2842E00
849,58	-6,2074E00
849,89	-5,2926E00
850,21	-6,7469E00
850,52	-6,3517E00
850,83	-6,5506E00
851,14	-4,5598E00
851,46	-6,2765E00
851,77	-6,9055E00
852,08	-6,7881E00
852,39	-6,0640E00
852,71	-7,0948E00
853,02	-6,1078E00
853,33	-5,2183E00
853,64	-6,3988E00
853,96	-6,0568E00
854,27	-4,9085E00
854,58	-5,0011E00
854,89	-5,3134E00
855,20	-5,2214E00
855,52	-5,7217E00
855,83	-5,7392E00
856,14	-6,8829E00
856,45	-5,2945E00
856,76	-6,0698E00
857,07	-5,5263E00
857,39	-6,3830E00
857,70	-5,4879E00
858,01	-6,5387E00
858,32	-5,7578E00
858,63	-5,8174E00
858,94	-7,4240E00
859,25	-6,7956E00
859,57	-5,9262E00
859,88	-5,5982E00
860,19	-6,2468E00
860,50	-5,8390E00
860,81	-6,4562E00
861,12	-5,4089E00
861,43	-5,8706E00
861,74	-8,0584E00
862,05	-7,0840E00
862,36	-6,1842E00
862,67	-6,5343E00
862,99	-6,3521E00
863,30	-6,9892E00
863,61	-7,0624E00
863,92	-6,4303E00
864,23	-6,9534E00
864,54	-5,6555E00
864,85	-5,5955E00
865,16	-6,8347E00
865,47	-6,4841E00
865,78	-8,1607E00
866,09	-6,2830E00
866,40	-5,9285E00
866,71	-6,9799E00
867,02	-5,6352E00
867,33	-7,7336E00
867,64	-5,8557E00
867,95	-3,6155E00
868,26	-3,4577E00
868,57	-6,7288E00
868,88	-7,5568E00
869,19	-7,8604E00
869,50	-6,2892E00
869,81	-6,4544E00
870,12	-8,1111E00
870,42	-5,9308E00
870,73	-5,9600E00
871,04	-7,3660E00
871,35	-5,9310E00
871,66	-7,9454E00
871,97	-7,9410E00
872,28	-8,1656E00
872,59	-7,0846E00
872,90	-1,1092E01
873,21	-7,1189E00
873,52	-1,0304E01
873,82	-7,6258E00
874,13	-6,9955E00
874,44	-6,1104E00
874,75	-8,0444E00
875,06	-7,2085E00
875,37	-8,0333E00
875,68	-6,1469E00
875,98	-7,7249E00
876,29	-7,3596E00
876,60	-8,0011E00
876,91	-8,3988E00
877,22	-7,4262E00
877,52	-7,9223E00
877,83	-8,3228E00
878,14	-8,4744E00
878,45	-9,8215E00
878,76	-7,9429E00
879,06	-6,1993E00
879,37	-8,2373E00
879,68	-1,0144E01
879,99	-8,8113E00
880,30	-7,7290E00
880,60	-1,0738E01
880,91	-9,3255E00
881,22	-8,5592E00
881,53	-8,0519E00
881,83	-7,9776E00
882,14	-1,0282E01
882,45	-8,7200E00
882,75	-9,0362E00
883,06	-1,0644E01
883,37	-9,8399E00
883,68	-8,2464E00
883,98	-9,6391E00
884,29	-8,4829E00
884,60	-7,7685E00
884,90	-1,0201E01
885,21	-9,2553E00
885,52	-9,5120E00
885,82	-9,3010E00
886,13	-7,0733E00
886,44	-9,1210E00
886,74	-9,1426E00
887,05	-1,0855E01
887,36	-1,0348E01
887,66	-1,1011E01
887,97	-9,9772E00
888,27	-8,4104E00
888,58	-1,1431E01
888,89	-9,7981E00
889,19	-7,5737E00
889,50	-9,4160E00
889,80	-8,2451E00
890,11	-8,8541E00
890,42	-9,9953E00
890,72	-8,7618E00
891,03	-8,5371E00
891,33	-8,4902E00
891,64	-8,7402E00
891,94	-8,4521E00
892,25	-9,2447E00
892,56	-9,1291E00
892,86	-8,1199E00
893,17	-8,6144E00
893,47	-1,0072E01
893,78	-9,9008E00
894,08	-7,9117E00
894,39	-8,9463E00
894,69	-1,0040E01
895,00	-9,6853E00
895,30	-9,3883E00
895,61	-1,0547E01
895,91	-1,0012E01
896,22	-9,5284E00
896,52	-1,0747E01
896,83	-8,2623E00
897,13	-9,9063E00
897,43	-9,1831E00
897,74	-8,3377E00
898,04	-7,1854E00
898,35	-1,0173E01
898,65	-1,0300E01
898,96	-1,0240E01
899,26	-1,1405E01
899,57	-7,6912E00
899,87	-9,7719E00
900,17	-9,1036E00
900,48	-9,5374E00
900,78	-8,7465E00
901,09	-9,9745E00
901,39	-9,8016E00
901,69	-8,7654E00
902,00	-9,5683E00
902,30	-1,1978E01
902,60	-1,1992E01
902,91	-1,0658E01
903,21	-8,9475E00
903,51	-1,0634E01
903,82	-9,8532E00
904,12	-8,0785E00
904,42	-1,0656E01
904,73	-9,0594E00
905,03	-1,0588E01
905,33	-1,0745E01
905,64	-8,8186E00
905,94	-1,1113E01
906,24	-1,0948E01
906,55	-9,4577E00
906,85	-1,0120E01
907,15	-1,1293E01
907,45	-1,1706E01
907,76	-1,1474E01
908,06	-1,0151E01
908,36	-9,6655E00
908,66	-7,8247E00
908,97	-9,7914E00
909,27	-1,0278E01
909,57	-1,0177E01
909,87	-8,7602E00
910,18	-1,0433E01
910,48	-1,3037E01
910,78	-7,9320E00
911,08	-1,2340E01
911,39	-1,0592E01
911,69	-1,0830E01
911,99	-1,1946E01
912,29	-1,1060E01
912,59	-1,2806E01
912,89	-1,2868E01
913,20	-9,5841E00
913,50	-1,3072E01
913,80	-1,1619E01
914,10	-1,1820E01
914,40	-1,1812E01
914,70	-1,1385E01
915,01	-1,3148E01
915,31	-9,9507E00
915,61	-1,4004E01
915,91	-1,3871E01
916,21	-1,0704E01
916,51	-9,8938E00
916,81	-9,7323E00
917,11	-1,2735E01
917,41	-1,0288E01
917,72	-1,0730E01
918,02	-1,4312E01
918,32	-1,3182E01
918,62	-1,2803E01
918,92	-1,3943E01
919,22	-1,1723E01
919,52	-1,4947E01
919,82	-1,4411E01
920,12	-1,3328E01
920,42	-1,1217E01
920,72	-1,4292E01
921,02	-1,4459E01
921,32	-1,4083E01
921,62	-1,3944E01
921,92	-1,1606E01
922,22	-1,4474E01
922,52	-1,2601E01
922,82	-1,4435E01
923,12	-1,4293E01
923,42	-9,8423E00
923,72	-1,0164E01
924,02	-1,4235E01
924,32	-1,5879E01
924,62	-1,4093E01
924,92	-1,3239E01
925,22	-1,3077E01
925,52	-1,2557E01
925,82	-1,4443E01
926,12	-1,5185E01
926,42	-1,7121E01
926,72	-1,1606E01
927,02	-1,4835E01
927,31	-2,0634E01
927,61	-1,4997E01
927,91	-1,5484E01
928,21	-1,6460E01
928,51	-1,6093E01
928,81	-1,3024E01
929,11	-1,5745E01
929,41	-1,4883E01
929,71	-1,6282E01
930,00	-1,6225E01
930,30	-1,5049E01
930,60	-1,4766E01
930,90	-1,3363E01
931,20	-1,6991E01
931,50	-1,7578E01
931,79	-1,9131E01
932,09	-1,7537E01
932,39	-2,1596E01
932,69	-1,7270E01
932,99	-1,8224E01
933,29	-1,6093E01
933,58	-2,0106E01
933,88	-1,9787E01
934,18	-1,4041E01
934,48	-1,9221E01
934,77	-1,8377E01
935,07	-1,8133E01
935,37	-2,3561E01
935,67	-2,1068E01
935,97	-1,7274E01
936,26	-2,0813E01
936,56	-1,9840E01
936,86	-2,1706E01
937,15	-1,9668E01
937,45	-1,8516E01
937,75	-1,7872E01
938,05	-2,1808E01
938,34	-2,2786E01
938,64	-2,9399E01
938,94	-1,7756E01
939,23	-2,0633E01
939,53	-2,2829E01
939,83	-2,0936E01
940,12	-2,4011E01
940,42	-3,7834E01
940,72	-2,7533E01
941,01	-2,6527E01
941,31	-2,6329E01
941,61	-3,2600E01
941,90	-2,7514E01
942,20	-2,7597E01
942,50	-2,7280E01
942,79	-2,7674E01
943,09	-2,6178E01
943,38	-2,6695E01
943,68	-3,2320E01
943,98	-3,1350E01
944,27	-3,7137E01
944,57	-2,7288E01
944,86	-3,2885E01
945,16	-3,9336E01
945,46	-3,4159E01
945,75	-3,8398E01
946,05	-3,8633E01
946,34	-3,2907E01
946,64	-3,4703E01
946,93	-3,0714E01
947,23	-3,4744E01
947,52	-3,5051E01
947,82	-3,3495E01
948,12	-3,0684E01
948,41	-3,0380E01
948,71	-2,8358E01
949,00	-3,2669E01
949,30	-3,3609E01
949,59	-4,5082E01
949,89	-3,5390E01
950,18	-2,8460E01
950,48	-3,2954E01
950,77	-3,8310E01
951,06	-3,6648E01
951,36	-3,0042E01
951,65	-3,7464E01
951,95	-3,5981E01
952,24	-3,6405E01
952,54	-3,4065E01
952,83	-3,7267E01
953,13	-2,9190E01
953,42	-3,0908E01
953,71	-3,1803E01
954,01	-3,4414E01
954,30	-3,4016E01
954,60	-2,6788E01
954,89	-3,2011E01
955,18	-4,3917E01
955,48	-3,4081E01
955,77	-3,3729E01
956,07	-3,3169E01
956,36	-3,3050E01
956,65	-3,5332E01
956,95	-3,1710E01
957,24	-2,9597E01
957,53	-3,4932E01
957,83	-3,0637E01
958,12	-3,2680E01
958,41	-4,2068E01
958,71	-3,1067E01
959,00	-2,8914E01
959,29	-3,0090E01
959,59	-3,5087E01
959,88	-4,7284E01
960,17	-3,4365E01
960,46	-3,8064E01
960,76	-3,1632E01
961,05	-3,2370E01
961,34	-3,0915E01
961,64	-4,0373E01
961,93	-4,5321E01
962,22	-3,9024E01
962,51	-3,4341E01
962,81	-3,9088E01
963,10	-3,4361E01
963,39	-3,3814E01
963,68	-3,9069E01
963,97	-3,5439E01
964,27	-3,7717E01
964,56	-3,8571E01
964,85	-4,5619E01
965,14	-4,0057E01
965,43	-3,3783E01
965,73	-4,5758E01
966,02	-4,2328E01
966,31	-3,1345E01
966,60	-3,6857E01
966,89	-4,1248E01
967,19	-3,6277E01
967,48	-4,4899E01
967,77	-5,0617E01
968,06	-4,1105E01
968,35	-4,3634E01
968,64	-3,3705E01
968,93	-4,3783E01
969,22	-4,3771E01
969,52	-4,3989E01
969,81	-4,2969E01
970,10	-4,2442E01
970,39	-4,2994E01
970,68	-3,8255E01
970,97	-4,2969E01
971,26	-3,8156E01
971,55	-3,9989E01
971,84	-4,6184E01
972,13	-3,9715E01
972,42	-4,6819E01
972,71	-4,6869E01
973,01	-4,2967E01
973,30	-4,8510E01
973,59	-3,1984E01
973,88	-4,0971E01
974,17	-3,2432E01
974,46	-4,1231E01
974,75	-4,7056E01
975,04	-5,1731E01
975,33	-5,5850E01
975,62	-5,2034E01
975,91	-5,7352E01
976,20	-4,5225E01
976,49	-5,5977E01
976,78	-4,7526E01
977,07	-4,2321E01
977,36	-6,4219E01
977,64	-4,5996E01
977,93	-4,2215E01
978,22	-4,7430E01
978,51	-5,2440E01
978,80	-5,0033E01
979,09	-4,4082E01
979,38	-4,6033E01
979,67	-5,7034E01
979,96	-5,6917E01
980,25	-5,0144E01
980,54	-4,6203E01
980,83	-5,8481E01
981,12	-5,3258E01
981,40	-5,0391E01
981,69	-3,8850E01
981,98	-4,7747E01
982,27	-5,5754E01
982,56	-5,9656E01
982,85	-6,5736E01
983,14	-4,9534E01
983,42	-5,7411E01
983,71	-4,7429E01
984,00	-6,4833E01
984,29	-5,1076E01
984,58	-5,8336E01
984,87	-6,0628E01
985,15	-6,0344E01
985,44	-5,1407E01
985,73	-6,2049E01
986,02	-5,4520E01
986,31	-6,1543E01
986,59	-7,4141E01
986,88	-4,7376E01
987,17	-6,5502E01
987,46	-6,2011E01
987,74	-6,5432E01
988,03	-7,1591E01
988,32	-1,0148E02
988,61	-6,3289E01
988,89	-6,3749E01
989,18	-6,7109E01
989,47	-6,6421E01
989,76	-7,0279E01
990,04	-7,1233E01
990,33	-8,0389E01
990,62	-7,2818E01
990,90	-6,6008E01
991,19	-8,4715E01
991,48	-7,0685E01
991,76	-8,2464E01
992,05	-6,8236E01
992,34	-8,9076E01
992,62	-7,7779E01
992,91	-7,2399E01
993,20	-7,1211E01
993,48	-7,7954E01
993,77	-6,9134E01
994,06	-8,7448E01
994,34	-6,8788E01
994,63	-8,0174E01
994,92	-7,8349E01
995,20	-9,3081E01
995,49	-7,9264E01
995,77	-7,5459E01
996,06	-7,2110E01
996,35	-8,7125E01
996,63	-6,6097E01
996,92	-8,8733E01
997,20	-9,6992E01
997,49	-6,9522E01
997,77	-1,1659E02
998,06	-9,7537E01
998,34	-8,5680E01
998,63	-9,0278E01
998,92	-8,8876E01
999,20	-8,3916E01
999,49	-1,0289E02
999,77	-7,3983E01
1000,06	-1,1132E02
1000,34	-9,2935E01
1000,63	-1,0266E02
1000,91	-9,2372E01
1001,20	-9,3314E01
1001,48	-9,4236E01
1001,77	-1,0690E02
1002,05	-9,1178E01
1002,34	-1,1472E02
1002,62	-1,0182E02
1002,90	-9,3905E01
1003,19	-1,0437E02
1003,47	-1,0607E02
1003,76	-9,0719E01
1004,04	-1,0894E02
1004,33	-1,0519E02
1004,61	-9,0676E01
1004,89	-1,0870E02
1005,18	-9,9426E01
1005,46	-1,0451E02
1005,75	-1,6266E02
1006,03	-1,3081E02
1006,31	-1,1341E02
1006,60	-1,3100E02
1006,88	-1,3232E02
1007,17	-8,6250E01
1007,45	-1,1926E02
1007,73	-1,0393E02
1008,02	-1,1932E02
1008,30	-1,1801E02
1008,58	-1,2087E02
1008,87	-1,1429E02
1009,15	-1,3823E02
1009,43	-1,4037E02
1009,72	-1,1149E02
1010,00	-1,4682E02
1010,28	-1,6272E02
1010,57	-1,3675E02
1010,85	-1,4726E02
1011,13	-1,2586E02
1011,41	-1,4965E02
1011,70	-1,5127E02
1011,98	-1,2029E02
1012,26	-1,5440E02
1012,55	-1,3922E02
1012,83	-1,3149E02
1013,11	-1,2926E02
1013,39	-1,1559E02
1013,68	-1,6740E02
1013,96	-1,4759E02
1014,24	-1,5400E02
1014,52	-1,7768E02
1014,80	-1,4735E02
1015,09	-1,7183E02
1015,37	-1,4796E02
1015,65	-1,9689E02
1015,93	-1,5562E02
1016,21	-1,3894E02
1016,50	-1,4372E02
1016,78	-1,4322E02
1017,06	-1,4053E02
1017,34	-1,6186E02
1017,62	-1,9832E02
1017,90	-2,2090E02
1018,19	-1,9161E02
1018,47	-1,9749E02
1018,75	-1,6856E02
1019,03	-1,4936E02
1019,31	-1,8154E02
1019,59	-2,0044E02
1019,87	-1,7499E02
1020,15	-1,9022E02
1020,44	-2,3529E02
1020,72	-2,1651E02
1021,00	-1,4970E02
1021,28	-1,7451E02
1021,56	-1,9166E02
1021,84	-2,5647E02
1022,12	-2,0000E02
1022,40	-2,3820E02
1022,68	-1,8559E02
1022,96	-2,1426E02
1023,24	-2,6646E02
1023,52	-2,3347E02
1023,80	-2,3359E02
1024,08	-2,3359E02
>>>>>End Processed Spectral Data<<<<<
