SpectraSuite Datei
++++++++++++++++++++++++++++++++++++
Datum: Thu Jan 20 12:15:58 CET 2022
Benutzer: RMV
Dark-Spektrum vorhanden: Ja
Referenz-Spektrum vorhanden: Nein
Zahl der probierten Teilspektren: 1
Spektrometer: USB2+H07983
Integrationszeit (usec): 3170 (USB2+H07983)
Spektren Durchschnitt berechnet: 1 (USB2+H07983)
Boxcar Glättung: 0 (USB2+H07983)
Dunkelstromkorrektur: Nein (USB2+H07983)
Puls/Lampe aktiviert: Nein (USB2+H07983)
Correct for Detector Non-linearity: Nein (USB2+H07983)
Streulichtkorrektur: Nein (USB2+H07983)
Anzahl Pixel in verarbeitetem Spektrum: 2048
>>>>>Begin Processed Spectral Data<<<<<
339,47	-0,0000E00
339,85	-0,0000E00
340,24	-0,0000E00
340,62	-0,0000E00
341,01	-0,0000E00
341,39	-0,0000E00
341,77	-0,0000E00
342,16	-0,0000E00
342,54	-0,0000E00
342,92	-0,0000E00
343,31	-0,0000E00
343,69	-0,0000E00
344,07	-0,0000E00
344,46	-0,0000E00
344,84	-0,0000E00
345,22	-0,0000E00
345,61	-0,0000E00
345,99	-0,0000E00
346,37	-0,0000E00
346,76	-0,0000E00
347,14	-0,0000E00
347,52	-0,0000E00
347,91	-0,0000E00
348,29	-0,0000E00
348,67	-5,6529E00
349,05	-5,9958E00
349,44	-5,5788E00
349,82	-6,2085E00
350,20	-4,6851E00
350,59	-4,5664E00
350,97	-5,0367E00
351,35	-4,3286E00
351,73	-4,1580E00
352,12	-4,6597E00
352,50	-4,7464E00
352,88	-3,8539E00
353,26	-3,6779E00
353,65	-4,2726E00
354,03	-5,3145E00
354,41	-4,8945E00
354,79	-3,1551E00
355,17	-4,4623E00
355,56	-4,5652E00
355,94	-3,1166E00
356,32	-4,6304E00
356,70	-4,1803E00
357,08	-3,2465E00
357,47	-3,7592E00
357,85	-4,8808E00
358,23	-4,5470E00
358,61	-4,3048E00
358,99	-5,2819E00
359,38	-4,7844E00
359,76	-5,1476E00
360,14	-5,8640E00
360,52	-4,2058E00
360,90	-3,9453E00
361,28	-4,5796E00
361,66	-4,4691E00
362,05	-3,5112E00
362,43	-3,7630E00
362,81	-5,4988E00
363,19	-4,1225E00
363,57	-4,4248E00
363,95	-3,7437E00
364,33	-4,8249E00
364,71	-3,1809E00
365,10	-4,1697E00
365,48	-5,7902E00
365,86	-5,1557E00
366,24	-4,6279E00
366,62	-3,5528E00
367,00	-4,8673E00
367,38	-3,4464E00
367,76	-3,9146E00
368,14	-4,6471E00
368,52	-4,3165E00
368,90	-3,4066E00
369,28	-3,7484E00
369,66	-4,1042E00
370,04	-4,8699E00
370,42	-4,5770E00
370,81	-4,3439E00
371,19	-4,0528E00
371,57	-5,0890E00
371,95	-4,4549E00
372,33	-3,2804E00
372,71	-4,8626E00
373,09	-5,1533E00
373,47	-3,2308E00
373,85	-3,6390E00
374,23	-4,1421E00
374,61	-4,4532E00
374,99	-4,3067E00
375,37	-3,0445E00
375,75	-4,3523E00
376,13	-3,2783E00
376,51	-3,8224E00
376,88	-3,6792E00
377,26	-3,6209E00
377,64	-4,1108E00
378,02	-3,3640E00
378,40	-3,4285E00
378,78	-3,8704E00
379,16	-3,9751E00
379,54	-3,4000E00
379,92	-3,3775E00
380,30	-3,5947E00
380,68	-2,9129E00
381,06	-3,8339E00
381,44	-3,4691E00
381,82	-3,5281E00
382,20	-3,2421E00
382,57	-3,1435E00
382,95	-3,2085E00
383,33	-3,0613E00
383,71	-3,0437E00
384,09	-3,8800E00
384,47	-3,5147E00
384,85	-3,4421E00
385,23	-3,3871E00
385,60	-2,9482E00
385,98	-2,7736E00
386,36	-3,0073E00
386,74	-3,5678E00
387,12	-3,5634E00
387,50	-3,3557E00
387,88	-3,7175E00
388,25	-3,2868E00
388,63	-3,2409E00
389,01	-2,9431E00
389,39	-2,7580E00
389,77	-2,6271E00
390,14	-3,3084E00
390,52	-2,4890E00
390,90	-2,4493E00
391,28	-3,0430E00
391,66	-3,6176E00
392,03	-3,0289E00
392,41	-2,7391E00
392,79	-2,6470E00
393,17	-3,1031E00
393,54	-3,4168E00
393,92	-3,0004E00
394,30	-2,9301E00
394,68	-2,2719E00
395,06	-3,0430E00
395,43	-3,2051E00
395,81	-2,3082E00
396,19	-2,9335E00
396,56	-2,6012E00
396,94	-2,2837E00
397,32	-2,7830E00
397,70	-2,8050E00
398,07	-2,4478E00
398,45	-2,3096E00
398,83	-1,8678E00
399,20	-2,2389E00
399,58	-2,5195E00
399,96	-2,4705E00
400,34	-2,8698E00
400,71	-2,7526E00
401,09	-2,7334E00
401,47	-1,8689E00
401,84	-2,3112E00
402,22	-2,4390E00
402,60	-2,3792E00
402,97	-1,9885E00
403,35	-2,1785E00
403,73	-2,0998E00
404,10	-2,7988E00
404,48	-2,4494E00
404,85	-2,3411E00
405,23	-1,4114E00
405,61	-2,2087E00
405,98	-1,9921E00
406,36	-2,1728E00
406,74	-2,3608E00
407,11	-1,6693E00
407,49	-1,6577E00
407,86	-1,8822E00
408,24	-1,3120E00
408,62	-1,8693E00
408,99	-1,2077E00
409,37	-1,7442E00
409,74	-1,1233E00
410,12	-6,7122E-01
410,49	-4,6007E-01
410,87	-8,8756E-01
411,25	-3,8268E-01
411,62	-2,9321E-01
412,00	0,0000E00
412,37	-2,8965E-02
412,75	-6,6306E-01
413,12	5,7400E-01
413,50	5,2699E-01
413,87	7,2100E-01
414,25	1,0930E00
414,62	9,6067E-01
415,00	1,1045E00
415,37	2,0963E00
415,75	1,7549E00
416,12	2,2839E00
416,50	2,4041E00
416,87	3,0563E00
417,25	3,4744E00
417,62	3,0928E00
418,00	3,9166E00
418,37	3,6529E00
418,75	4,2109E00
419,12	5,0551E00
419,50	5,1530E00
419,87	5,5343E00
420,25	6,4686E00
420,62	7,1783E00
420,99	7,4205E00
421,37	8,1448E00
421,74	8,0958E00
422,12	6,1704E00
422,49	9,2759E00
422,87	1,0193E01
423,24	1,1288E01
423,61	1,2305E01
423,99	1,2166E01
424,36	1,3036E01
424,74	1,3344E01
425,11	1,3907E01
425,48	1,4177E01
425,86	1,4785E01
426,23	1,4954E01
426,60	1,6183E01
426,98	1,6822E01
427,35	1,7729E01
427,73	1,8224E01
428,10	1,9264E01
428,47	2,0381E01
428,85	2,0770E01
429,22	2,2104E01
429,59	2,3628E01
429,97	2,2719E01
430,34	2,4072E01
430,71	2,5667E01
431,09	2,6018E01
431,46	2,6952E01
431,83	2,8180E01
432,21	2,9158E01
432,58	3,0524E01
432,95	3,1315E01
433,32	3,0805E01
433,70	3,3943E01
434,07	3,4349E01
434,44	3,4096E01
434,82	3,6139E01
435,19	3,6027E01
435,56	3,7643E01
435,93	3,6591E01
436,31	3,7865E01
436,68	3,6315E01
437,05	3,7579E01
437,42	3,8061E01
437,80	3,8945E01
438,17	3,8038E01
438,54	3,6541E01
438,91	3,6190E01
439,28	3,4051E01
439,66	3,3851E01
440,03	3,2457E01
440,40	3,1085E01
440,77	2,9445E01
441,14	2,8636E01
441,52	2,8250E01
441,89	2,6676E01
442,26	2,5477E01
442,63	2,3641E01
443,00	2,1624E01
443,38	2,1174E01
443,75	1,9824E01
444,12	1,8529E01
444,49	1,7187E01
444,86	1,5834E01
445,23	1,5427E01
445,60	1,4078E01
445,98	1,3386E01
446,35	1,2235E01
446,72	1,0920E01
447,09	1,0391E01
447,46	9,6643E00
447,83	8,9190E00
448,20	8,9793E00
448,57	8,8347E00
448,94	7,6661E00
449,32	7,5934E00
449,69	7,2059E00
450,06	6,5749E00
450,43	6,0498E00
450,80	5,8363E00
451,17	5,3629E00
451,54	5,1889E00
451,91	5,3540E00
452,28	5,2930E00
452,65	4,5773E00
453,02	4,9836E00
453,39	4,8178E00
453,76	4,1409E00
454,13	4,2554E00
454,50	3,8205E00
454,87	3,6570E00
455,24	3,0619E00
455,61	3,4800E00
455,98	3,4692E00
456,35	2,8866E00
456,72	2,4837E00
457,09	2,5451E00
457,46	2,5851E00
457,83	2,3700E00
458,20	1,8903E00
458,57	2,2009E00
458,94	2,0257E00
459,31	1,6899E00
459,68	1,9802E00
460,05	1,2993E00
460,42	1,3625E00
460,79	1,6066E00
461,16	1,2794E00
461,53	1,4010E00
461,90	1,0300E00
462,27	1,0676E00
462,64	7,1816E-01
463,01	1,3372E00
463,38	1,1564E00
463,75	1,1264E00
464,12	7,8103E-01
464,48	7,9360E-01
464,85	5,2659E-01
465,22	8,8447E-01
465,59	6,4398E-01
465,96	4,7003E-01
466,33	7,7342E-01
466,70	7,1293E-01
467,07	5,0314E-01
467,44	5,3215E-01
467,80	9,7889E-01
468,17	1,6471E-01
468,54	3,0427E-01
468,91	4,8074E-01
469,28	5,7816E-01
469,65	2,7568E-01
470,02	5,3994E-01
470,38	7,0936E-01
470,75	4,7851E-01
471,12	4,9578E-01
471,49	3,4459E-01
471,86	3,9223E-01
472,22	7,2739E-01
472,59	7,7766E-01
472,96	6,5690E-01
473,33	7,6194E-01
473,70	6,7735E-01
474,06	8,0056E-01
474,43	9,6286E-01
474,80	6,1126E-01
475,17	7,1705E-01
475,54	8,2821E-01
475,90	7,7498E-01
476,27	1,0903E00
476,64	5,3081E-01
477,01	9,8214E-01
477,37	7,1628E-01
477,74	9,7103E-01
478,11	1,0348E00
478,48	5,1153E-01
478,84	1,0122E00
479,21	1,0680E00
479,58	1,3145E00
479,94	1,1698E00
480,31	1,0750E00
480,68	1,1013E00
481,05	1,0773E00
481,41	1,6102E00
481,78	1,4932E00
482,15	1,3736E00
482,51	1,7652E00
482,88	1,8598E00
483,25	1,7292E00
483,61	1,6438E00
483,98	2,0064E00
484,35	2,1332E00
484,71	2,1368E00
485,08	2,2631E00
485,45	2,2028E00
485,81	2,2449E00
486,18	2,3951E00
486,54	2,5864E00
486,91	2,6677E00
487,28	2,8872E00
487,64	2,8902E00
488,01	3,0257E00
488,38	3,1306E00
488,74	3,2941E00
489,11	3,3796E00
489,47	3,4465E00
489,84	3,6991E00
490,20	3,8933E00
490,57	3,9547E00
490,94	4,2794E00
491,30	4,1769E00
491,67	4,2469E00
492,03	4,1736E00
492,40	4,5894E00
492,76	4,6935E00
493,13	5,0238E00
493,50	5,0886E00
493,86	5,1845E00
494,23	5,4739E00
494,59	5,6555E00
494,96	5,4582E00
495,32	6,1028E00
495,69	6,1652E00
496,05	6,3438E00
496,42	6,4534E00
496,78	6,7378E00
497,15	6,9819E00
497,51	7,0296E00
497,88	7,2468E00
498,24	7,5406E00
498,61	7,6105E00
498,97	7,6280E00
499,34	8,0690E00
499,70	8,2681E00
500,06	8,5795E00
500,43	8,5952E00
500,79	8,8844E00
501,16	8,8598E00
501,52	9,2775E00
501,89	9,4334E00
502,25	9,3210E00
502,62	9,9771E00
502,98	1,0112E01
503,34	1,0402E01
503,71	1,0253E01
504,07	1,0591E01
504,44	1,0816E01
504,80	1,0885E01
505,16	1,1245E01
505,53	1,1452E01
505,89	1,1297E01
506,26	1,1739E01
506,62	1,1799E01
506,98	1,2097E01
507,35	1,2294E01
507,71	1,2473E01
508,07	1,2966E01
508,44	1,2625E01
508,80	1,2510E01
509,16	1,3153E01
509,53	1,3464E01
509,89	1,3473E01
510,25	1,3551E01
510,62	1,4080E01
510,98	1,4205E01
511,34	1,4113E01
511,71	1,4246E01
512,07	1,4775E01
512,43	1,4582E01
512,80	1,5004E01
513,16	1,5085E01
513,52	1,5082E01
513,88	1,5435E01
514,25	1,5271E01
514,61	1,5364E01
514,97	1,4958E01
515,33	1,5650E01
515,70	1,6006E01
516,06	1,6208E01
516,42	1,5958E01
516,78	1,6136E01
517,15	1,6511E01
517,51	1,6219E01
517,87	1,6630E01
518,23	1,6366E01
518,60	1,7015E01
518,96	1,6953E01
519,32	1,7149E01
519,68	1,7382E01
520,04	1,7450E01
520,41	1,7493E01
520,77	1,7343E01
521,13	1,7084E01
521,49	1,7640E01
521,85	1,7842E01
522,22	1,7601E01
522,58	1,8005E01
522,94	1,7982E01
523,30	1,8217E01
523,66	1,8022E01
524,02	1,8409E01
524,38	1,8678E01
524,75	1,8533E01
525,11	1,8683E01
525,47	1,8730E01
525,83	1,8536E01
526,19	1,8525E01
526,55	1,8650E01
526,91	1,8620E01
527,27	1,9237E01
527,64	1,9030E01
528,00	1,9153E01
528,36	1,9363E01
528,72	1,9467E01
529,08	1,9037E01
529,44	1,9257E01
529,80	1,9283E01
530,16	1,9420E01
530,52	1,9270E01
530,88	1,9255E01
531,24	1,9288E01
531,60	1,9672E01
531,96	1,9763E01
532,32	1,9584E01
532,68	1,9719E01
533,04	1,9845E01
533,40	1,9887E01
533,77	1,9560E01
534,13	2,0140E01
534,49	2,0073E01
534,85	1,9723E01
535,21	1,9683E01
535,57	2,0247E01
535,93	1,9699E01
536,29	1,9861E01
536,65	2,0138E01
537,00	1,9762E01
537,36	1,9800E01
537,72	2,0203E01
538,08	1,9979E01
538,44	2,0003E01
538,80	2,0146E01
539,16	1,9833E01
539,52	2,0047E01
539,88	2,0362E01
540,24	1,9848E01
540,60	1,9692E01
540,96	2,0065E01
541,32	2,0499E01
541,68	1,9995E01
542,04	2,0120E01
542,40	1,9727E01
542,75	2,0300E01
543,11	1,9931E01
543,47	2,0248E01
543,83	2,0098E01
544,19	2,0372E01
544,55	2,0254E01
544,91	2,0243E01
545,27	2,0167E01
545,63	2,0307E01
545,98	2,0328E01
546,34	1,9885E01
546,70	2,0414E01
547,06	2,0350E01
547,42	2,0106E01
547,78	1,9756E01
548,13	2,0232E01
548,49	2,0078E01
548,85	1,9707E01
549,21	1,9622E01
549,57	2,0109E01
549,93	2,0100E01
550,28	1,9801E01
550,64	1,9353E01
551,00	2,0477E01
551,36	1,9954E01
551,71	1,9761E01
552,07	1,9889E01
552,43	1,9936E01
552,79	2,0106E01
553,15	1,9796E01
553,50	2,0053E01
553,86	1,9987E01
554,22	1,9683E01
554,58	1,9950E01
554,93	1,9812E01
555,29	1,9809E01
555,65	1,9879E01
556,01	1,9930E01
556,36	1,9817E01
556,72	1,9851E01
557,08	1,9603E01
557,43	2,0058E01
557,79	1,9780E01
558,15	1,9544E01
558,50	1,9780E01
558,86	1,9619E01
559,22	1,9674E01
559,58	1,9671E01
559,93	1,9874E01
560,29	1,9475E01
560,65	1,9871E01
561,00	1,9649E01
561,36	1,9318E01
561,71	1,8779E01
562,07	1,9131E01
562,43	1,9656E01
562,78	1,9587E01
563,14	1,9981E01
563,50	1,9487E01
563,85	1,9105E01
564,21	1,9387E01
564,57	1,9421E01
564,92	1,8635E01
565,28	1,9124E01
565,63	1,8880E01
565,99	1,8854E01
566,35	1,8990E01
566,70	1,9163E01
567,06	1,8881E01
567,41	1,8789E01
567,77	1,9222E01
568,12	1,8630E01
568,48	1,8728E01
568,83	1,8577E01
569,19	1,8799E01
569,55	1,8557E01
569,90	1,8897E01
570,26	1,8377E01
570,61	1,8295E01
570,97	1,8814E01
571,32	1,8022E01
571,68	1,8545E01
572,03	1,8194E01
572,39	1,8238E01
572,74	1,8052E01
573,10	1,8334E01
573,45	1,8288E01
573,81	1,7886E01
574,16	1,8269E01
574,52	1,7674E01
574,87	1,8306E01
575,23	1,7962E01
575,58	1,8003E01
575,94	1,7973E01
576,29	1,7993E01
576,64	1,7744E01
577,00	1,7663E01
577,35	1,7961E01
577,71	1,7708E01
578,06	1,7828E01
578,42	1,7619E01
578,77	1,7920E01
579,12	1,7366E01
579,48	1,7320E01
579,83	1,7530E01
580,19	1,7484E01
580,54	1,7287E01
580,89	1,7038E01
581,25	1,7363E01
581,60	1,7160E01
581,96	1,7200E01
582,31	1,7442E01
582,66	1,6919E01
583,02	1,7038E01
583,37	1,6687E01
583,72	1,6502E01
584,08	1,6574E01
584,43	1,7152E01
584,78	1,6434E01
585,14	1,6472E01
585,49	1,6304E01
585,84	1,6440E01
586,20	1,6028E01
586,55	1,6310E01
586,90	1,6640E01
587,26	1,5901E01
587,61	1,6412E01
587,96	1,6221E01
588,32	1,6330E01
588,67	1,6100E01
589,02	1,6025E01
589,37	1,5827E01
589,73	1,5897E01
590,08	1,5759E01
590,43	1,5768E01
590,78	1,5425E01
591,14	1,5609E01
591,49	1,5036E01
591,84	1,5231E01
592,19	1,5435E01
592,55	1,5585E01
592,90	1,5504E01
593,25	1,4970E01
593,60	1,5045E01
593,96	1,4633E01
594,31	1,4971E01
594,66	1,5089E01
595,01	1,4698E01
595,36	1,4708E01
595,72	1,4896E01
596,07	1,4936E01
596,42	1,4585E01
596,77	1,4948E01
597,12	1,4511E01
597,47	1,4266E01
597,83	1,4452E01
598,18	1,4876E01
598,53	1,4293E01
598,88	1,4005E01
599,23	1,4253E01
599,58	1,4076E01
599,93	1,4080E01
600,29	1,4301E01
600,64	1,3747E01
600,99	1,4163E01
601,34	1,4096E01
601,69	1,3780E01
602,04	1,3905E01
602,39	1,3647E01
602,74	1,3801E01
603,09	1,3610E01
603,44	1,3816E01
603,80	1,3373E01
604,15	1,3426E01
604,50	1,3207E01
604,85	1,3079E01
605,20	1,3132E01
605,55	1,3201E01
605,90	1,2517E01
606,25	1,2605E01
606,60	1,3032E01
606,95	1,2436E01
607,30	1,2250E01
607,65	1,2389E01
608,00	1,2434E01
608,35	1,2464E01
608,70	1,2086E01
609,05	1,2254E01
609,40	1,2051E01
609,75	1,2224E01
610,10	1,1953E01
610,45	1,1857E01
610,80	1,1526E01
611,15	1,1712E01
611,50	1,1801E01
611,85	1,1846E01
612,20	1,1609E01
612,55	1,1334E01
612,90	1,1469E01
613,25	1,1166E01
613,60	1,1322E01
613,95	1,1170E01
614,30	1,1016E01
614,64	1,1233E01
614,99	1,0845E01
615,34	1,0868E01
615,69	1,0922E01
616,04	1,0518E01
616,39	1,0707E01
616,74	1,0803E01
617,09	1,0659E01
617,44	1,0363E01
617,79	1,0603E01
618,13	1,0316E01
618,48	1,0299E01
618,83	1,0011E01
619,18	1,0184E01
619,53	9,8705E00
619,88	9,9390E00
620,23	9,5424E00
620,57	9,8958E00
620,92	9,9314E00
621,27	1,0034E01
621,62	1,0060E01
621,97	9,5363E00
622,32	9,2158E00
622,66	9,1749E00
623,01	9,1952E00
623,36	9,1812E00
623,71	9,5587E00
624,06	9,2135E00
624,40	9,4175E00
624,75	8,8997E00
625,10	9,1799E00
625,45	9,1919E00
625,80	8,9599E00
626,14	9,0206E00
626,49	8,6072E00
626,84	8,8808E00
627,19	8,6070E00
627,53	8,2085E00
627,88	8,4137E00
628,23	8,2952E00
628,57	8,3957E00
628,92	8,3408E00
629,27	8,3616E00
629,62	8,2042E00
629,96	8,1674E00
630,31	7,9723E00
630,66	8,0899E00
631,00	8,0392E00
631,35	7,9656E00
631,70	8,1833E00
632,05	7,7126E00
632,39	7,9240E00
632,74	7,5946E00
633,09	7,8748E00
633,43	7,8460E00
633,78	7,4978E00
634,12	7,2860E00
634,47	7,4393E00
634,82	7,4318E00
635,16	7,1739E00
635,51	7,0092E00
635,86	7,3157E00
636,20	6,9898E00
636,55	6,7789E00
636,90	6,9340E00
637,24	6,7757E00
637,59	6,9849E00
637,93	6,8352E00
638,28	6,5543E00
638,63	6,3853E00
638,97	6,8362E00
639,32	6,5443E00
639,66	6,2850E00
640,01	6,3494E00
640,35	6,4576E00
640,70	6,3964E00
641,04	6,2330E00
641,39	6,1555E00
641,74	6,0807E00
642,08	6,0916E00
642,43	6,3181E00
642,77	5,9299E00
643,12	5,9077E00
643,46	6,1948E00
643,81	5,8078E00
644,15	5,6997E00
644,50	5,5434E00
644,84	6,0938E00
645,19	5,5713E00
645,53	5,4447E00
645,88	5,4894E00
646,22	5,3903E00
646,57	5,5655E00
646,91	5,1883E00
647,26	5,1546E00
647,60	5,4494E00
647,94	5,3633E00
648,29	4,9880E00
648,63	5,1699E00
648,98	4,8909E00
649,32	5,2251E00
649,67	5,1302E00
650,01	5,2756E00
650,36	5,3010E00
650,70	5,0280E00
651,04	4,8193E00
651,39	4,7921E00
651,73	4,7589E00
652,08	4,6424E00
652,42	4,6658E00
652,76	4,3808E00
653,11	4,5408E00
653,45	4,3889E00
653,79	4,6482E00
654,14	4,5680E00
654,48	4,2760E00
654,83	4,4634E00
655,17	3,9668E00
655,51	3,7977E00
655,86	4,2824E00
656,20	4,2001E00
656,54	4,2888E00
656,89	3,8530E00
657,23	4,1023E00
657,57	3,8250E00
657,91	3,7467E00
658,26	3,8234E00
658,60	3,5563E00
658,94	3,9497E00
659,29	3,9323E00
659,63	3,7168E00
659,97	3,7070E00
660,32	3,6876E00
660,66	3,6539E00
661,00	3,5469E00
661,34	3,4524E00
661,69	3,6667E00
662,03	3,4283E00
662,37	3,5677E00
662,71	3,3490E00
663,06	3,2797E00
663,40	3,1909E00
663,74	2,9814E00
664,08	2,9484E00
664,42	3,2386E00
664,77	3,5560E00
665,11	2,8729E00
665,45	3,1641E00
665,79	2,9663E00
666,13	3,0731E00
666,48	3,1949E00
666,82	3,1323E00
667,16	3,0694E00
667,50	2,5957E00
667,84	2,6024E00
668,18	2,8105E00
668,53	3,3970E00
668,87	2,6511E00
669,21	2,4690E00
669,55	2,5114E00
669,89	2,5709E00
670,23	2,7469E00
670,57	2,7038E00
670,92	2,4522E00
671,26	2,4446E00
671,60	2,1838E00
671,94	2,6299E00
672,28	2,0852E00
672,62	2,5710E00
672,96	2,3367E00
673,30	2,5631E00
673,64	2,1007E00
673,98	2,3189E00
674,33	2,3861E00
674,67	1,5930E00
675,01	2,2171E00
675,35	2,4772E00
675,69	2,3309E00
676,03	2,2524E00
676,37	2,0888E00
676,71	1,9790E00
677,05	1,7822E00
677,39	2,2097E00
677,73	1,6369E00
678,07	1,9329E00
678,41	1,7808E00
678,75	1,6668E00
679,09	1,4971E00
679,43	1,7159E00
679,77	1,7456E00
680,11	1,8226E00
680,45	1,4513E00
680,79	1,3751E00
681,13	1,6532E00
681,47	1,1890E00
681,81	1,4193E00
682,15	1,9036E00
682,49	1,5840E00
682,83	1,3922E00
683,17	1,1582E00
683,51	1,5978E00
683,84	1,6520E00
684,18	1,7068E00
684,52	1,4295E00
684,86	9,9201E-01
685,20	1,0451E00
685,54	1,8533E00
685,88	1,1439E00
686,22	8,7717E-01
686,56	1,0406E00
686,90	1,4345E00
687,24	1,2088E00
687,57	1,1870E00
687,91	1,4045E00
688,25	1,1941E00
688,59	1,1719E00
688,93	7,0869E-01
689,27	7,8009E-01
689,61	6,2610E-01
689,94	1,0377E00
690,28	1,0496E00
690,62	9,8198E-01
690,96	1,0205E00
691,30	9,8796E-01
691,64	8,2296E-01
691,97	8,9621E-01
692,31	6,6737E-01
692,65	8,6556E-01
692,99	6,1759E-01
693,33	1,1484E00
693,66	8,3684E-01
694,00	5,0520E-01
694,34	4,0721E-01
694,68	6,5304E-01
695,01	5,0938E-01
695,35	4,5604E-01
695,69	5,6702E-01
696,03	4,7675E-01
696,36	5,5157E-01
696,70	8,2965E-01
697,04	1,6646E-01
697,38	3,8019E-01
697,71	1,5811E-01
698,05	6,2475E-01
698,39	6,2674E-01
698,72	4,7844E-01
699,06	6,6780E-01
699,40	-1,8867E-01
699,74	3,3125E-01
700,07	3,3224E-01
700,41	3,0467E-01
700,75	4,4879E-01
701,08	4,2137E-01
701,42	7,6832E-02
701,76	1,2526E-01
702,09	4,1575E-01
702,43	-1,0669E-01
702,77	1,5570E-01
703,10	4,4895E-01
703,44	2,4473E-01
703,77	7,8554E-02
704,11	-9,8483E-03
704,45	0,0000E00
704,78	2,9717E-02
705,12	9,9355E-02
705,46	-6,9722E-02
705,79	0,0000E00
706,13	2,8029E-01
706,46	-4,5156E-01
706,80	-1,7107E-01
707,14	-3,2280E-01
707,47	-5,0577E-02
707,81	-3,7520E-01
708,14	-4,8806E-01
708,48	-3,5693E-01
708,81	-1,2272E-01
709,15	-3,9992E-01
709,48	9,2562E-02
709,82	9,2828E-02
710,16	-1,2412E-01
710,49	-2,3860E-01
710,83	-2,1848E-01
711,16	-6,4704E-01
711,50	-7,9530E-01
711,83	-2,0991E-01
712,17	5,2617E-02
712,50	-7,3885E-02
712,84	-4,8691E-01
713,17	-7,4296E-02
713,51	-3,8338E-01
713,84	-5,0211E-01
714,18	-7,0706E-01
714,51	-6,1261E-01
714,85	-7,5444E-01
715,18	-1,2976E-01
715,51	-5,2075E-01
715,85	-5,3332E-01
716,18	-3,7121E-01
716,52	-3,3975E-01
716,85	-7,6982E-01
717,19	-8,7157E-01
717,52	-9,9622E-01
717,86	-1,1112E00
718,19	-6,3568E-01
718,52	-3,8062E-01
718,86	-7,8638E-02
719,19	-6,1992E-01
719,53	-5,7692E-01
719,86	-6,4742E-01
720,19	-6,4971E-01
720,53	-1,3385E00
720,86	-4,4768E-01
721,19	-5,7603E-01
721,53	-7,5136E-01
721,86	-9,0447E-01
722,20	-4,7690E-01
722,53	-7,9360E-01
722,86	-9,9522E-01
723,20	-8,8055E-01
723,53	-7,4126E-01
723,86	-9,6724E-01
724,20	-7,3307E-01
724,53	-7,7059E-01
724,86	-1,0458E00
725,19	-5,0005E-01
725,53	-7,9958E-01
725,86	-1,2078E00
726,19	-1,1985E00
726,53	-9,9674E-01
726,86	-9,1503E-01
727,19	-6,6404E-01
727,53	-1,0888E00
727,86	-1,4916E00
728,19	-7,0471E-01
728,52	-7,7932E-01
728,86	-7,3250E-01
729,19	-3,9153E-01
729,52	-1,3612E00
729,85	-8,2318E-01
730,19	-7,0201E-01
730,52	-8,1439E-01
730,85	-1,0382E00
731,18	-1,3130E00
731,51	-8,6903E-01
731,85	-7,9652E-01
732,18	-7,3582E-01
732,51	-7,6258E-01
732,84	-1,3658E00
733,17	-1,1178E00
733,51	-1,2338E00
733,84	-1,0096E00
734,17	-1,4045E00
734,50	-1,2054E00
734,83	-1,3230E00
735,16	-1,2111E00
735,50	-1,6874E00
735,83	-1,4483E00
736,16	-1,4260E00
736,49	-1,0815E00
736,82	-1,0711E00
737,15	-1,4620E00
737,48	-1,5303E00
737,81	-7,5401E-01
738,15	-1,0298E00
738,48	-1,0718E00
738,81	-1,1401E00
739,14	-1,4574E00
739,47	-1,1977E00
739,80	-1,4644E00
740,13	-1,6942E00
740,46	-1,4599E00
740,79	-1,4637E00
741,12	-1,5215E00
741,45	-1,6864E00
741,78	-1,5966E00
742,11	-1,4662E00
742,44	-1,6321E00
742,78	-1,5156E00
743,11	-1,4251E00
743,44	-1,8234E00
743,77	-1,7318E00
744,10	-1,3403E00
744,43	-1,3027E00
744,76	-8,2484E-01
745,09	-1,5706E00
745,42	-1,8512E00
745,75	-1,4960E00
746,08	-1,4171E00
746,41	-1,7129E00
746,74	-2,1083E00
747,07	-1,8214E00
747,40	-2,1363E00
747,72	-1,5498E00
748,05	-1,2015E00
748,38	-1,8571E00
748,71	-2,5182E00
749,04	-1,1701E00
749,37	-1,9464E00
749,70	-1,5501E00
750,03	-1,6989E00
750,36	-2,1661E00
750,69	-1,6510E00
751,02	-2,4264E00
751,35	-1,9823E00
751,68	-1,7836E00
752,00	-2,6397E00
752,33	-2,2946E00
752,66	-2,0360E00
752,99	-1,9685E00
753,32	-2,2126E00
753,65	-2,1303E00
753,98	-2,1518E00
754,31	-2,1588E00
754,63	-2,3165E00
754,96	-1,7201E00
755,29	-1,8920E00
755,62	-1,8676E00
755,95	-2,1019E00
756,28	-2,1846E00
756,60	-2,1453E00
756,93	-1,9058E00
757,26	-2,6053E00
757,59	-1,3612E00
757,92	-2,0784E00
758,24	-2,0843E00
758,57	-1,4050E00
758,90	-1,7384E00
759,23	-1,9950E00
759,56	-1,4026E00
759,88	-2,6095E00
760,21	-2,1260E00
760,54	-2,6574E00
760,87	-2,0916E00
761,19	-2,6750E00
761,52	-2,5556E00
761,85	-2,2577E00
762,18	-1,7468E00
762,50	-1,8658E00
762,83	-1,8557E00
763,16	-2,3347E00
763,49	-2,2927E00
763,81	-2,2177E00
764,14	-2,2092E00
764,47	-1,7365E00
764,79	-2,7706E00
765,12	-2,3800E00
765,45	-2,3201E00
765,77	-2,3610E00
766,10	-2,0994E00
766,43	-2,0559E00
766,75	-2,2994E00
767,08	-2,0189E00
767,41	-2,2805E00
767,73	-2,7659E00
768,06	-2,2090E00
768,39	-1,7878E00
768,71	-2,4489E00
769,04	-1,5397E00
769,36	-2,6722E00
769,69	-2,7347E00
770,02	-1,8527E00
770,34	-3,0679E00
770,67	-1,9878E00
770,99	-2,0309E00
771,32	-2,7814E00
771,65	-2,3652E00
771,97	-2,1228E00
772,30	-3,4554E00
772,62	-2,6238E00
772,95	-2,2190E00
773,27	-2,0086E00
773,60	-2,5610E00
773,93	-3,2096E00
774,25	-2,1954E00
774,58	-2,2946E00
774,90	-2,7648E00
775,23	-2,3122E00
775,55	-2,9155E00
775,88	-2,9456E00
776,20	-2,8828E00
776,53	-3,1776E00
776,85	-2,1726E00
777,18	-2,2196E00
777,50	-2,9143E00
777,83	-3,2719E00
778,15	-2,2686E00
778,48	-2,7609E00
778,80	-2,7162E00
779,13	-2,9617E00
779,45	-3,6997E00
779,78	-2,1225E00
780,10	-2,0312E00
780,42	-3,4833E00
780,75	-3,3367E00
781,07	-2,9896E00
781,40	-2,6783E00
781,72	-2,5051E00
782,05	-2,5112E00
782,37	-2,3557E00
782,69	-2,9844E00
783,02	-2,3413E00
783,34	-2,1824E00
783,67	-3,0552E00
783,99	-2,8745E00
784,31	-2,9355E00
784,64	-3,3214E00
784,96	-2,8157E00
785,28	-3,4833E00
785,61	-2,4694E00
785,93	-3,9631E00
786,25	-2,9903E00
786,58	-2,8674E00
786,90	-2,7231E00
787,22	-3,5260E00
787,55	-2,8364E00
787,87	-3,0537E00
788,19	-2,7669E00
788,52	-2,8414E00
788,84	-2,8564E00
789,16	-3,1310E00
789,49	-3,3642E00
789,81	-2,8806E00
790,13	-3,8079E00
790,46	-2,7324E00
790,78	-2,6681E00
791,10	-3,4348E00
791,42	-2,5220E00
791,75	-2,6771E00
792,07	-3,2848E00
792,39	-2,6328E00
792,71	-1,7858E00
793,04	-3,7254E00
793,36	-2,8615E00
793,68	-3,8371E00
794,00	-3,3463E00
794,32	-1,7802E00
794,65	-2,8356E00
794,97	-2,5629E00
795,29	-3,7158E00
795,61	-2,7186E00
795,93	-2,6788E00
796,26	-3,5798E00
796,58	-2,8978E00
796,90	-2,7237E00
797,22	-2,7468E00
797,54	-2,6710E00
797,87	-2,4775E00
798,19	-2,4807E00
798,51	-3,0345E00
798,83	-2,6453E00
799,15	-3,3806E00
799,47	-3,2084E00
799,79	-3,0164E00
800,12	-4,0337E00
800,44	-2,3692E00
800,76	-2,8525E00
801,08	-2,5984E00
801,40	-3,2855E00
801,72	-3,4536E00
802,04	-2,9798E00
802,36	-2,8064E00
802,68	-3,6651E00
803,00	-3,0855E00
803,32	-3,4804E00
803,65	-3,8586E00
803,97	-2,9683E00
804,29	-3,1000E00
804,61	-3,1507E00
804,93	-3,7996E00
805,25	-3,4588E00
805,57	-2,7633E00
805,89	-3,5828E00
806,21	-2,7156E00
806,53	-3,6916E00
806,85	-3,4526E00
807,17	-2,7461E00
807,49	-2,6082E00
807,81	-2,1711E00
808,13	-2,9469E00
808,45	-3,1940E00
808,77	-2,7339E00
809,09	-3,8456E00
809,41	-3,9041E00
809,73	-3,1147E00
810,05	-3,7805E00
810,37	-2,6104E00
810,69	-3,3692E00
811,01	-2,6528E00
811,33	-4,1484E00
811,64	-4,0105E00
811,96	-4,3155E00
812,28	-3,2992E00
812,60	-2,9516E00
812,92	-3,1896E00
813,24	-3,9053E00
813,56	-3,8068E00
813,88	-4,3479E00
814,20	-3,4921E00
814,52	-3,3199E00
814,83	-3,7977E00
815,15	-4,5798E00
815,47	-2,7312E00
815,79	-4,1924E00
816,11	-2,8460E00
816,43	-4,0852E00
816,75	-3,3901E00
817,06	-3,0714E00
817,38	-3,2268E00
817,70	-3,8149E00
818,02	-4,3620E00
818,34	-3,8712E00
818,66	-3,6932E00
818,97	-3,7581E00
819,29	-3,9717E00
819,61	-3,7899E00
819,93	-3,6069E00
820,25	-3,9190E00
820,56	-2,9880E00
820,88	-3,9486E00
821,20	-3,4400E00
821,52	-3,9326E00
821,84	-3,5939E00
822,15	-3,7098E00
822,47	-3,5704E00
822,79	-3,9180E00
823,11	-4,3183E00
823,42	-4,4404E00
823,74	-3,7570E00
824,06	-4,6297E00
824,37	-3,7610E00
824,69	-4,7181E00
825,01	-4,8139E00
825,33	-3,7236E00
825,64	-4,8772E00
825,96	-5,2150E00
826,28	-4,1370E00
826,59	-5,9749E00
826,91	-4,8654E00
827,23	-3,4001E00
827,54	-4,4674E00
827,86	-4,3482E00
828,18	-4,2541E00
828,49	-4,8717E00
828,81	-4,5850E00
829,13	-5,0121E00
829,44	-3,9804E00
829,76	-3,8853E00
830,08	-4,7910E00
830,39	-5,0603E00
830,71	-4,6842E00
831,02	-5,4636E00
831,34	-4,6068E00
831,66	-4,9066E00
831,97	-4,7275E00
832,29	-4,3753E00
832,60	-4,4220E00
832,92	-3,6608E00
833,23	-3,2111E00
833,55	-4,6749E00
833,87	-5,5090E00
834,18	-4,9756E00
834,50	-3,6996E00
834,81	-3,1243E00
835,13	-3,4907E00
835,44	-4,7773E00
835,76	-4,4358E00
836,07	-4,8687E00
836,39	-4,8543E00
836,70	-4,2391E00
837,02	-4,3122E00
837,33	-3,9955E00
837,65	-5,0425E00
837,96	-4,4516E00
838,28	-5,3550E00
838,59	-4,7296E00
838,91	-5,5166E00
839,22	-5,9346E00
839,54	-4,6807E00
839,85	-4,4138E00
840,17	-3,6151E00
840,48	-3,4360E00
840,80	-4,6924E00
841,11	-5,6120E00
841,43	-4,9927E00
841,74	-4,6216E00
842,05	-5,6050E00
842,37	-4,9552E00
842,68	-5,9510E00
843,00	-3,7168E00
843,31	-5,0064E00
843,62	-4,3216E00
843,94	-4,6646E00
844,25	-5,7198E00
844,57	-4,2514E00
844,88	-6,0358E00
845,19	-3,9684E00
845,51	-5,2086E00
845,82	-6,2896E00
846,13	-5,6501E00
846,45	-5,7396E00
846,76	-6,0955E00
847,07	-7,1614E00
847,39	-4,3867E00
847,70	-4,4714E00
848,01	-5,6485E00
848,33	-6,1135E00
848,64	-5,7936E00
848,95	-3,7153E00
849,27	-5,3188E00
849,58	-5,4791E00
849,89	-4,3177E00
850,21	-6,1526E00
850,52	-5,8955E00
850,83	-5,3884E00
851,14	-5,5496E00
851,46	-5,9928E00
851,77	-5,3393E00
852,08	-5,5019E00
852,39	-5,6334E00
852,71	-5,9424E00
853,02	-5,8187E00
853,33	-5,6894E00
853,64	-6,1807E00
853,96	-5,3271E00
854,27	-5,4213E00
854,58	-4,5966E00
854,89	-5,3503E00
855,20	-6,0361E00
855,52	-5,2015E00
855,83	-5,0683E00
856,14	-6,9951E00
856,45	-5,3321E00
856,76	-6,2206E00
857,07	-5,1478E00
857,39	-6,2311E00
857,70	-5,9833E00
858,01	-6,5387E00
858,32	-7,2164E00
858,63	-6,2412E00
858,94	-8,1973E00
859,25	-7,1062E00
859,57	-5,6532E00
859,88	-5,5199E00
860,19	-6,4039E00
860,50	-6,4703E00
860,81	-5,9413E00
861,12	-6,3236E00
861,43	-6,9889E00
861,74	-7,2565E00
862,05	-6,5607E00
862,36	-5,8204E00
862,67	-5,3979E00
862,99	-6,3928E00
863,30	-7,6023E00
863,61	-6,6107E00
863,92	-7,2135E00
864,23	-7,6156E00
864,54	-6,0713E00
864,85	-5,8043E00
865,16	-7,7572E00
865,47	-5,5578E00
865,78	-8,3298E00
866,09	-6,6650E00
866,40	-6,0564E00
866,71	-6,6802E00
867,02	-5,6352E00
867,33	-6,8263E00
867,64	-6,2027E00
867,95	-4,2253E00
868,26	-4,6394E00
868,57	-7,1686E00
868,88	-8,0871E00
869,19	-6,7501E00
869,50	-6,0661E00
869,81	-6,6337E00
870,12	-6,8944E00
870,42	-6,2478E00
870,73	-7,2794E00
871,04	-5,9020E00
871,35	-6,8046E00
871,66	-7,1139E00
871,97	-8,8234E00
872,28	-6,3459E00
872,59	-7,7414E00
872,90	-9,3454E00
873,21	-4,9358E00
873,52	-7,5846E00
873,82	-7,2900E00
874,13	-7,3332E00
874,44	-6,4498E00
874,75	-9,1170E00
875,06	-8,3364E00
875,37	-7,9840E00
875,68	-7,4853E00
875,98	-6,7282E00
876,29	-6,0078E00
876,60	-8,0514E00
876,91	-5,5654E00
877,22	-8,2400E00
877,52	-9,6601E00
877,83	-7,3980E00
878,14	-7,4926E00
878,45	-8,1586E00
878,76	-9,6673E00
879,06	-6,8298E00
879,37	-9,8214E00
879,68	-1,0197E01
879,99	-7,5830E00
880,30	-6,4945E00
880,60	-1,0036E01
880,91	-8,5122E00
881,22	-8,3411E00
881,53	-1,0845E01
881,83	-7,8676E00
882,14	-9,4530E00
882,45	-8,9422E00
882,75	-8,7573E00
883,06	-8,4032E00
883,37	-8,2656E00
883,68	-9,0372E00
883,98	-9,3556E00
884,29	-8,6537E00
884,60	-8,7396E00
884,90	-9,9716E00
885,21	-1,1382E01
885,52	-8,6472E00
885,82	-7,9722E00
886,13	-6,4935E00
886,44	-8,1915E00
886,74	-9,1426E00
887,05	-1,0505E01
887,36	-7,8339E00
887,66	-9,6639E00
887,97	-8,5100E00
888,27	-1,0351E01
888,58	-9,4279E00
888,89	-1,0447E01
889,19	-8,1062E00
889,50	-1,1133E01
889,80	-9,0162E00
890,11	-7,9033E00
890,42	-1,0828E01
890,72	-1,1623E01
891,03	-1,0268E01
891,33	-8,8489E00
891,64	-8,2612E00
891,94	-9,2913E00
892,25	-1,0325E01
892,56	-8,7688E00
892,86	-6,6764E00
893,17	-1,0783E01
893,47	-9,6498E00
893,78	-9,2971E00
894,08	-9,7236E00
894,39	-1,1727E01
894,69	-8,5881E00
895,00	-9,5642E00
895,30	-9,3883E00
895,61	-1,2062E01
895,91	-1,0619E01
896,22	-8,4966E00
896,52	-9,8972E00
896,83	-9,0521E00
897,13	-1,1426E01
897,43	-9,1223E00
897,74	-9,8592E00
898,04	-8,5860E00
898,35	-9,4418E00
898,65	-1,0665E01
898,96	-1,1520E01
899,26	-1,1709E01
899,57	-8,7289E00
899,87	-1,1543E01
900,17	-8,5537E00
900,48	-8,8038E00
900,78	-8,7465E00
901,09	-8,3835E00
901,39	-1,0475E01
901,69	-8,7041E00
902,00	-9,3230E00
902,30	-1,1118E01
902,60	-9,9629E00
902,91	-1,0658E01
903,21	-9,1327E00
903,51	-1,1191E01
903,82	-9,6673E00
904,12	-8,4513E00
904,42	-8,2260E00
904,73	-8,0597E00
905,03	-8,5829E00
905,33	-1,0557E01
905,64	-9,5745E00
905,94	-1,0924E01
906,24	-8,6061E00
906,55	-9,9021E00
906,85	-8,9105E00
907,15	-9,5706E00
907,45	-1,1322E01
907,76	-1,2179E01
908,06	-8,7373E00
908,36	-1,1727E01
908,66	-1,0735E01
908,97	-1,0440E01
909,27	-9,0417E00
909,57	-9,2633E00
909,87	-9,2832E00
910,18	-1,1154E01
910,48	-1,2378E01
910,78	-1,0378E01
911,08	-1,2473E01
911,39	-1,0858E01
911,69	-1,2367E01
911,99	-1,0335E01
912,29	-1,0183E01
912,59	-1,0773E01
912,89	-1,1029E01
913,20	-8,8995E00
913,50	-1,1146E01
913,80	-1,0236E01
914,10	-1,4323E01
914,40	-9,7152E00
914,70	-1,2860E01
915,01	-1,1664E01
915,31	-9,6664E00
915,61	-1,2718E01
915,91	-1,2721E01
916,21	-1,1138E01
916,51	-1,1422E01
916,81	-1,0464E01
917,11	-1,5237E01
917,41	-1,2879E01
917,72	-1,2741E01
918,02	-1,3188E01
918,32	-1,2353E01
918,62	-1,2045E01
918,92	-1,2115E01
919,22	-9,6540E00
919,52	-1,4100E01
919,82	-1,4488E01
920,12	-1,2237E01
920,42	-1,0197E01
920,72	-1,0028E01
921,02	-1,1281E01
921,32	-1,1842E01
921,62	-1,4025E01
921,92	-1,4447E01
922,22	-1,5292E01
922,52	-1,0789E01
922,82	-1,5016E01
923,12	-1,3624E01
923,42	-9,0852E00
923,72	-1,0588E01
924,02	-1,3127E01
924,32	-1,7510E01
924,62	-1,3055E01
924,92	-1,4371E01
925,22	-1,2199E01
925,52	-1,0877E01
925,82	-1,3730E01
926,12	-1,3478E01
926,42	-1,8299E01
926,72	-1,3708E01
927,02	-1,9442E01
927,31	-1,5243E01
927,61	-1,4716E01
927,91	-1,5579E01
928,21	-1,4177E01
928,51	-1,6955E01
928,81	-1,1770E01
929,11	-1,6619E01
929,41	-1,5568E01
929,71	-1,6183E01
930,00	-1,7817E01
930,30	-1,2641E01
930,60	-1,6384E01
930,90	-1,6729E01
931,20	-1,9566E01
931,50	-1,5498E01
931,79	-1,5977E01
932,09	-1,5411E01
932,39	-1,7406E01
932,69	-1,6836E01
932,99	-1,8883E01
933,29	-1,4429E01
933,58	-1,8758E01
933,88	-1,6944E01
934,18	-1,3465E01
934,48	-1,9919E01
934,77	-2,0733E01
935,07	-1,7895E01
935,37	-2,1990E01
935,67	-2,2171E01
935,97	-1,9263E01
936,26	-1,9804E01
936,56	-2,0352E01
936,86	-2,0926E01
937,15	-2,2967E01
937,45	-2,2138E01
937,75	-1,7326E01
938,05	-2,0419E01
938,34	-2,4201E01
938,64	-2,5940E01
938,94	-1,9224E01
939,23	-2,2726E01
939,53	-2,0850E01
939,83	-2,2797E01
940,12	-2,5591E01
940,42	-3,6868E01
940,72	-3,1138E01
941,01	-2,5860E01
941,31	-2,8876E01
941,61	-3,3635E01
941,90	-2,8566E01
942,20	-3,0802E01
942,50	-2,9087E01
942,79	-2,4925E01
943,09	-2,9148E01
943,38	-3,0079E01
943,68	-2,5666E01
943,98	-2,7888E01
944,27	-3,7137E01
944,57	-2,9644E01
944,86	-3,1895E01
945,16	-3,5543E01
945,46	-2,9537E01
945,75	-3,5569E01
946,05	-3,9243E01
946,34	-3,2907E01
946,64	-3,4498E01
946,93	-3,1333E01
947,23	-3,2469E01
947,52	-3,4222E01
947,82	-3,0374E01
948,12	-3,0267E01
948,41	-2,9752E01
948,71	-3,0458E01
949,00	-2,7399E01
949,30	-3,6568E01
949,59	-3,7674E01
949,89	-2,9244E01
950,18	-3,5044E01
950,48	-2,9978E01
950,77	-3,4479E01
951,06	-2,9404E01
951,36	-3,3665E01
951,65	-3,5335E01
951,95	-4,1942E01
952,24	-3,8534E01
952,54	-3,5768E01
952,83	-3,6416E01
953,13	-2,5781E01
953,42	-3,7090E01
953,71	-3,0735E01
954,01	-3,1207E01
954,30	-3,0165E01
954,60	-3,6004E01
954,89	-3,3515E01
955,18	-3,9396E01
955,48	-2,9551E01
955,77	-3,9350E01
956,07	-3,7505E01
956,36	-3,0441E01
956,65	-3,2932E01
956,95	-3,5209E01
957,24	-2,6089E01
957,53	-3,6250E01
957,83	-3,3282E01
958,12	-3,5109E01
958,41	-3,3655E01
958,71	-3,2620E01
959,00	-2,9359E01
959,29	-2,5409E01
959,59	-3,2405E01
959,88	-3,8993E01
960,17	-3,5264E01
960,46	-3,7164E01
960,76	-3,1406E01
961,05	-3,2597E01
961,34	-3,0233E01
961,64	-3,8320E01
961,93	-3,6852E01
962,22	-3,5352E01
962,51	-2,7888E01
962,81	-3,5850E01
963,10	-3,0182E01
963,39	-3,5680E01
963,68	-3,5092E01
963,97	-3,6847E01
964,27	-3,6774E01
964,56	-3,7151E01
964,85	-4,3480E01
965,14	-2,8374E01
965,43	-4,5284E01
965,73	-3,9738E01
966,02	-3,9183E01
966,31	-3,9364E01
966,60	-3,5881E01
966,89	-4,6158E01
967,19	-4,0472E01
967,48	-4,9861E01
967,77	-4,1890E01
968,06	-3,6594E01
968,35	-4,2625E01
968,64	-3,4972E01
968,93	-3,9965E01
969,22	-4,0187E01
969,52	-4,0902E01
969,81	-4,0640E01
970,10	-4,8692E01
970,39	-4,5091E01
970,68	-4,1158E01
970,97	-4,3235E01
971,26	-4,0291E01
971,55	-3,7573E01
971,84	-4,0242E01
972,13	-4,1347E01
972,42	-4,4355E01
972,71	-4,1906E01
973,01	-4,4353E01
973,30	-4,6837E01
973,59	-3,2264E01
973,88	-2,9668E01
974,17	-4,2958E01
974,46	-5,0680E01
974,75	-3,7240E01
975,04	-5,1440E01
975,33	-5,4973E01
975,62	-5,6738E01
975,91	-5,5874E01
976,20	-5,4152E01
976,49	-5,5977E01
976,78	-5,6249E01
977,07	-5,6227E01
977,36	-5,6914E01
977,64	-4,8755E01
977,93	-4,3139E01
978,22	-3,7510E01
978,51	-4,0266E01
978,80	-4,7830E01
979,09	-5,2645E01
979,38	-4,6673E01
979,67	-5,2201E01
979,96	-5,3990E01
980,25	-5,8665E01
980,54	-5,0493E01
980,83	-6,5459E01
981,12	-3,8185E01
981,40	-6,0875E01
981,69	-3,7827E01
981,98	-5,7709E01
982,27	-5,4023E01
982,56	-6,1401E01
982,85	-4,8511E01
983,14	-4,0689E01
983,42	-5,2419E01
983,71	-5,6412E01
984,00	-6,7730E01
984,29	-6,5304E01
984,58	-6,8976E01
984,87	-7,1348E01
985,15	-6,3324E01
985,44	-5,2158E01
985,73	-7,4535E01
986,02	-5,6426E01
986,31	-4,6926E01
986,59	-7,8411E01
986,88	-5,7947E01
987,17	-7,5367E01
987,46	-6,5589E01
987,74	-6,6637E01
988,03	-7,1591E01
988,32	-9,2516E01
988,61	-6,5344E01
988,89	-6,7060E01
989,18	-6,0023E01
989,47	-4,9606E01
989,76	-6,5199E01
990,04	-7,6778E01
990,33	-7,0502E01
990,62	-6,9351E01
990,90	-7,9122E01
991,19	-8,8687E01
991,48	-5,2903E01
991,76	-7,5293E01
992,05	-6,3266E01
992,34	-6,8520E01
992,62	-9,0206E01
992,91	-5,8012E01
993,20	-6,5589E01
993,48	-7,5592E01
993,77	-5,7214E01
994,06	-8,2643E01
994,34	-7,9930E01
994,63	-8,4085E01
994,92	-7,1943E01
995,20	-8,5117E01
995,49	-1,0585E02
995,77	-9,0652E01
996,06	-8,2850E01
996,35	-7,7845E01
996,63	-7,4424E01
996,92	-9,3984E01
997,20	-8,4802E01
997,49	-5,7222E01
997,77	-1,2307E02
998,06	-7,6831E01
998,34	-6,1514E01
998,63	-7,3663E01
998,92	-8,1051E01
999,20	-9,3490E01
999,49	-9,8345E01
999,77	-8,1439E01
1000,06	-9,7985E01
1000,34	-7,8907E01
1000,63	-9,3811E01
1000,91	-8,3432E01
1001,20	-1,1198E02
1001,48	-1,0457E02
1001,77	-8,4168E01
1002,05	-1,0730E02
1002,34	-1,3164E02
1002,62	-9,9286E01
1002,90	-9,2628E01
1003,19	-1,0501E02
1003,47	-1,2299E02
1003,76	-1,0518E02
1004,04	-1,1624E02
1004,33	-1,1792E02
1004,61	-8,3233E01
1004,89	-8,8876E01
1005,18	-7,7331E01
1005,46	-1,3587E02
1005,75	-1,3872E02
1006,03	-1,4432E02
1006,31	-1,4212E02
1006,60	-1,2665E02
1006,88	-1,2136E02
1007,17	-8,9199E01
1007,45	-1,4013E02
1007,73	-9,4892E01
1008,02	-1,2236E02
1008,30	-1,1035E02
1008,58	-1,5031E02
1008,87	-1,2056E02
1009,15	-1,4533E02
1009,43	-1,6270E02
1009,72	-1,0826E02
1010,00	-1,3785E02
1010,28	-1,2555E02
1010,57	-9,0056E01
1010,85	-1,2285E02
1011,13	-1,5732E02
1011,41	-1,5825E02
1011,70	-1,4519E02
1011,98	-9,4829E01
1012,26	-1,3576E02
1012,55	-1,2125E02
1012,83	-1,2877E02
1013,11	-1,3934E02
1013,39	-1,3131E02
1013,68	-1,7675E02
1013,96	-1,6936E02
1014,24	-1,5687E02
1014,52	-1,6609E02
1014,80	-1,7076E02
1015,09	-1,4418E02
1015,37	-1,5295E02
1015,65	-1,8276E02
1015,93	-1,9453E02
1016,21	-1,5760E02
1016,50	-1,6470E02
1016,78	-1,7398E02
1017,06	-1,3087E02
1017,34	-1,9337E02
1017,62	-1,6967E02
1017,90	-2,0751E02
1018,19	-1,3187E02
1018,47	-2,1233E02
1018,75	-1,6395E02
1019,03	-1,6686E02
1019,31	-2,0983E02
1019,59	-2,0521E02
1019,87	-1,8223E02
1020,15	-2,0851E02
1020,44	-2,1558E02
1020,72	-1,9909E02
1021,00	-1,5850E02
1021,28	-1,7833E02
1021,56	-2,0195E02
1021,84	-2,1872E02
1022,12	-1,8947E02
1022,40	-2,1026E02
1022,68	-1,9769E02
1022,96	-1,9528E02
1023,24	-2,4023E02
1023,52	-2,6177E02
1023,80	-2,6191E02
1024,08	-2,6191E02
>>>>>End Processed Spectral Data<<<<<
