SpectraSuite Datei
++++++++++++++++++++++++++++++++++++
Datum: Thu Jan 20 11:31:59 CET 2022
Benutzer: RMV
Dark-Spektrum vorhanden: Ja
Referenz-Spektrum vorhanden: Nein
Zahl der probierten Teilspektren: 1
Spektrometer: USB2+H07983
Integrationszeit (usec): 10000 (USB2+H07983)
Spektren Durchschnitt berechnet: 1 (USB2+H07983)
Boxcar Glättung: 0 (USB2+H07983)
Dunkelstromkorrektur: Nein (USB2+H07983)
Puls/Lampe aktiviert: Nein (USB2+H07983)
Correct for Detector Non-linearity: Nein (USB2+H07983)
Streulichtkorrektur: Nein (USB2+H07983)
Anzahl Pixel in verarbeitetem Spektrum: 2048
>>>>>Begin Processed Spectral Data<<<<<
339,47	-0,0000E00
339,85	-0,0000E00
340,24	-0,0000E00
340,62	-0,0000E00
341,01	-0,0000E00
341,39	-0,0000E00
341,77	-0,0000E00
342,16	-0,0000E00
342,54	-0,0000E00
342,92	-0,0000E00
343,31	-0,0000E00
343,69	-0,0000E00
344,07	-0,0000E00
344,46	-0,0000E00
344,84	-0,0000E00
345,22	-0,0000E00
345,61	-0,0000E00
345,99	-0,0000E00
346,37	-0,0000E00
346,76	-0,0000E00
347,14	-0,0000E00
347,52	-0,0000E00
347,91	-0,0000E00
348,29	-0,0000E00
348,67	-1,3873E00
349,05	-1,0460E00
349,44	-1,3264E00
349,82	-1,2630E00
350,20	-5,5694E-01
350,59	-1,0050E00
350,97	-1,1405E00
351,35	-8,5420E-01
351,73	-6,3196E-01
352,12	-7,0296E-01
352,50	-9,5908E-01
352,88	-8,6757E-01
353,26	-4,9090E-01
353,65	-5,6937E-01
354,03	-7,7755E-01
354,41	-7,4544E-01
354,79	-4,4355E-01
355,17	-9,1683E-01
355,56	-6,6657E-01
355,94	-7,1692E-01
356,32	-1,0020E00
356,70	-9,3382E-01
357,08	-9,0494E-01
357,47	-8,1816E-01
357,85	-1,0822E00
358,23	-8,4527E-01
358,61	-7,3548E-01
358,99	-9,9222E-01
359,38	-9,4351E-01
359,76	-6,3166E-01
360,14	-1,3942E00
360,52	-9,7596E-01
360,90	-7,4693E-01
361,28	-7,5629E-01
361,66	-1,0169E00
362,05	-6,5218E-01
362,43	-8,0975E-01
362,81	-8,9346E-01
363,19	-4,9116E-01
363,57	-7,1009E-01
363,95	-7,8239E-01
364,33	-7,1612E-01
364,71	-5,6608E-01
365,10	-9,8469E-01
365,48	-1,0565E00
365,86	-1,3635E00
366,24	-1,0620E00
366,62	-7,4783E-01
367,00	-6,5107E-01
367,38	-4,6696E-01
367,76	-8,6516E-01
368,14	-1,2378E00
368,52	-4,7935E-01
368,90	-5,4866E-01
369,28	-4,8571E-01
369,66	-6,5051E-01
370,04	-8,9063E-01
370,42	-7,4667E-01
370,81	-8,1446E-01
371,19	-1,0496E00
371,57	-9,9664E-01
371,95	-8,1180E-01
372,33	-7,6314E-01
372,71	-8,7017E-01
373,09	-7,6729E-01
373,47	-7,2101E-01
373,85	-7,6904E-01
374,23	-7,8621E-01
374,61	-1,0106E00
374,99	-7,2276E-01
375,37	-6,5405E-01
375,75	-9,0665E-01
376,13	-8,4389E-01
376,51	-6,7575E-01
376,88	-5,7157E-01
377,26	-6,4278E-01
377,64	-5,0296E-01
378,02	-7,5631E-01
378,40	-8,8304E-01
378,78	-9,0326E-01
379,16	-8,8730E-01
379,54	-6,3487E-01
379,92	-7,0401E-01
380,30	-8,4734E-01
380,68	-6,6164E-01
381,06	-6,5108E-01
381,44	-6,0774E-01
381,82	-4,9065E-01
382,20	-4,4559E-01
382,57	-4,3419E-01
382,95	-7,0632E-01
383,33	-6,7509E-01
383,71	-5,3835E-01
384,09	-7,3658E-01
384,47	-7,8198E-01
384,85	-6,7939E-01
385,23	-6,2917E-01
385,60	-5,8243E-01
385,98	-4,7652E-01
386,36	-6,5332E-01
386,74	-6,3202E-01
387,12	-7,7289E-01
387,50	-6,0411E-01
387,88	-7,3327E-01
388,25	-5,2096E-01
388,63	-4,3292E-01
389,01	-4,1179E-01
389,39	-5,2968E-01
389,77	-5,9121E-01
390,14	-8,0237E-01
390,52	-5,0721E-01
390,90	-5,2175E-01
391,28	-6,4926E-01
391,66	-7,0904E-01
392,03	-7,8891E-01
392,41	-5,8291E-01
392,79	-5,3124E-01
393,17	-4,6784E-01
393,54	-5,5347E-01
393,92	-5,9667E-01
394,30	-4,4679E-01
394,68	-4,3329E-01
395,06	-6,9152E-01
395,43	-6,5232E-01
395,81	-4,0586E-01
396,19	-6,0671E-01
396,56	-3,8969E-01
396,94	-4,7141E-01
397,32	-5,5837E-01
397,70	-5,0572E-01
398,07	-2,2170E-01
398,45	-4,1287E-01
398,83	-4,4955E-01
399,20	-4,8589E-01
399,58	-4,5638E-01
399,96	-4,4289E-01
400,34	-5,7598E-01
400,71	-5,0855E-01
401,09	-5,4754E-01
401,47	-5,7128E-01
401,84	-4,9545E-01
402,22	-5,2241E-01
402,60	-4,6292E-01
402,97	-5,7352E-01
403,35	-4,8960E-01
403,73	-4,1475E-01
404,10	-5,8129E-01
404,48	-5,8869E-01
404,85	-5,8562E-01
405,23	-4,7756E-01
405,61	-5,8012E-01
405,98	-4,8730E-01
406,36	-6,8878E-01
406,74	-5,2681E-01
407,11	-4,6548E-01
407,49	-5,0603E-01
407,86	-5,8210E-01
408,24	-4,1106E-01
408,62	-5,5886E-01
408,99	-3,9719E-01
409,37	-6,4822E-01
409,74	-2,4214E-01
410,12	-3,8300E-01
410,49	-3,2462E-01
410,87	-6,0961E-01
411,25	-3,0794E-01
411,62	-2,9278E-01
412,00	-1,2020E-01
412,37	-3,7187E-01
412,75	-4,4779E-01
413,12	-5,5497E-01
413,50	-4,0184E-01
413,87	-5,1985E-01
414,25	-4,8420E-01
414,62	-1,7654E-01
415,00	-5,6460E-01
415,37	-2,5626E-01
415,75	-5,0888E-01
416,12	-3,6843E-01
416,50	-4,9813E-01
416,87	-2,1577E-01
417,25	-2,8273E-01
417,62	-5,1755E-01
418,00	-3,2297E-01
418,37	-4,6820E-01
418,75	-5,4059E-01
419,12	-3,3540E-01
419,50	-3,3000E-01
419,87	-5,3823E-01
420,25	-2,9878E-01
420,62	-3,4663E-01
420,99	-4,4612E-01
421,37	-4,2227E-01
421,74	-4,1174E-01
422,12	-9,0064E-01
422,49	-4,4206E-01
422,87	-3,1055E-01
423,24	-4,3504E-01
423,61	-3,7095E-01
423,99	-2,0994E-01
424,36	-3,4855E-01
424,74	-3,7859E-01
425,11	-2,8542E-01
425,48	-2,9652E-01
425,86	-3,4902E-01
426,23	-3,4433E-01
426,60	-3,9637E-01
426,98	-2,9605E-01
427,35	-4,4220E-01
427,73	-5,0398E-01
428,10	-3,7159E-01
428,47	-2,2085E-01
428,85	-3,4319E-01
429,22	-2,3035E-01
429,59	-3,7062E-02
429,97	-4,3973E-01
430,34	-4,7140E-01
430,71	-1,8717E-01
431,09	-3,1088E-01
431,46	-2,2618E-01
431,83	-3,8507E-01
432,21	-4,0062E-01
432,58	-2,1503E-01
432,95	-3,5975E-01
433,32	-3,6102E-01
433,70	-2,3552E-01
434,07	-4,1624E-01
434,44	-2,8507E-01
434,82	-1,6608E-01
435,19	-3,4420E-01
435,56	-3,2140E-01
435,93	-3,7451E-01
436,31	-4,4733E-01
436,68	-4,0173E-01
437,05	-3,6262E-01
437,42	-5,4159E-01
437,80	-3,2638E-01
438,17	-2,4872E-01
438,54	-3,7654E-01
438,91	-2,3036E-01
439,28	-4,0634E-01
439,66	-2,8711E-01
440,03	-2,5649E-01
440,40	-3,0663E-01
440,77	-3,9843E-01
441,14	-2,4646E-01
441,52	-1,8477E-01
441,89	-3,4243E-01
442,26	-1,9237E-01
442,63	-3,1370E-01
443,00	-3,3415E-01
443,38	-3,1725E-01
443,75	-2,4182E-01
444,12	-3,7676E-01
444,49	-2,4009E-01
444,86	-1,8408E-01
445,23	-2,0491E-01
445,60	-2,5911E-01
445,98	-3,2196E-01
446,35	-2,5716E-01
446,72	-4,0103E-01
447,09	-2,9099E-01
447,46	-3,6727E-01
447,83	-2,8511E-01
448,20	-2,0078E-01
448,57	-2,5005E-01
448,94	-3,0706E-01
449,32	-2,4450E-01
449,69	-2,6669E-01
450,06	-2,5728E-01
450,43	-3,0327E-01
450,80	-3,5734E-01
451,17	-3,0779E-01
451,54	-2,6697E-01
451,91	-2,5229E-01
452,28	-2,2372E-01
452,65	-8,3160E-02
453,02	-1,8350E-01
453,39	-1,8338E-01
453,76	-2,5221E-01
454,13	-2,1480E-01
454,50	-1,9183E-01
454,87	-2,8051E-01
455,24	-3,2354E-01
455,61	-1,6905E-01
455,98	-1,2028E-01
456,35	-2,0589E-01
456,72	-2,7671E-01
457,09	-2,3662E-01
457,46	-2,0487E-01
457,83	-1,5876E-01
458,20	-2,7983E-01
458,57	-2,1944E-01
458,94	-1,3460E-01
459,31	-2,0926E-01
459,68	-1,4999E-01
460,05	-2,9301E-01
460,42	-2,6961E-01
460,79	-2,5192E-01
461,16	-2,2593E-01
461,53	-1,1645E-01
461,90	-1,8619E-01
462,27	-1,6116E-01
462,64	-2,3034E-01
463,01	-1,3064E-01
463,38	-9,0318E-02
463,75	-1,8779E-01
464,12	-1,1326E-01
464,48	-1,8606E-01
464,85	-2,7648E-01
465,22	-1,8432E-01
465,59	-1,8864E-01
465,96	-2,2350E-01
466,33	-1,8133E-01
466,70	-1,5236E-01
467,07	-2,3291E-01
467,44	-1,2841E-01
467,80	-5,0050E-03
468,17	-6,7133E-02
468,54	-1,9538E-01
468,91	-8,3571E-02
469,28	-9,0417E-02
469,65	-1,9906E-01
470,02	-9,1608E-02
470,38	-7,4158E-02
470,75	-6,6363E-02
471,12	-8,2100E-02
471,49	-1,6501E-01
471,86	-9,4404E-02
472,22	3,6528E-02
472,59	4,5233E-03
472,96	-9,4042E-02
473,33	5,3182E-02
473,70	1,5337E-02
474,06	4,1212E-02
474,43	7,5232E-02
474,80	7,2397E-02
475,17	1,0523E-02
475,54	1,0418E-02
475,90	1,2180E-01
476,27	1,2066E-01
476,64	1,2569E-01
477,01	1,5667E-01
477,37	1,4739E-01
477,74	1,6969E-01
478,11	1,9134E-01
478,48	2,0269E-01
478,84	2,0627E-01
479,21	3,0261E-01
479,58	3,5317E-01
479,94	3,4867E-01
480,31	3,3530E-01
480,68	3,6711E-01
481,05	4,1443E-01
481,41	5,0167E-01
481,78	4,8896E-01
482,15	4,7487E-01
482,51	5,8160E-01
482,88	5,5940E-01
483,25	6,3096E-01
483,61	6,4725E-01
483,98	7,2528E-01
484,35	7,3886E-01
484,71	7,7755E-01
485,08	7,9765E-01
485,45	8,6349E-01
485,81	8,3513E-01
486,18	9,6547E-01
486,54	9,2579E-01
486,91	1,0586E00
487,28	1,1842E00
487,64	1,1416E00
488,01	1,2818E00
488,38	1,3280E00
488,74	1,4301E00
489,11	1,4697E00
489,47	1,5301E00
489,84	1,6545E00
490,20	1,7504E00
490,57	1,6945E00
490,94	1,8975E00
491,30	2,0468E00
491,67	2,0681E00
492,03	2,1763E00
492,40	2,3293E00
492,76	2,3487E00
493,13	2,6186E00
493,50	2,6684E00
493,86	2,7574E00
494,23	3,0554E00
494,59	3,0958E00
494,96	3,3324E00
495,32	3,4196E00
495,69	3,6326E00
496,05	3,7928E00
496,42	3,9624E00
496,78	4,2132E00
497,15	4,3719E00
497,51	4,6310E00
497,88	4,8835E00
498,24	5,1199E00
498,61	5,4959E00
498,97	5,7435E00
499,34	6,0153E00
499,70	6,4171E00
500,06	6,7124E00
500,43	6,9476E00
500,79	7,3803E00
501,16	7,6135E00
501,52	7,9627E00
501,89	8,4950E00
502,25	8,8453E00
502,62	9,3922E00
502,98	9,7354E00
503,34	1,0271E01
503,71	1,0725E01
504,07	1,1365E01
504,44	1,1908E01
504,80	1,2272E01
505,16	1,3037E01
505,53	1,3537E01
505,89	1,4171E01
506,26	1,4957E01
506,62	1,5521E01
506,98	1,6274E01
507,35	1,6920E01
507,71	1,7522E01
508,07	1,8445E01
508,44	1,9109E01
508,80	1,9970E01
509,16	2,0799E01
509,53	2,1438E01
509,89	2,2152E01
510,25	2,2987E01
510,62	2,3588E01
510,98	2,4305E01
511,34	2,4848E01
511,71	2,5665E01
512,07	2,5956E01
512,43	2,6523E01
512,80	2,6994E01
513,16	2,7468E01
513,52	2,7791E01
513,88	2,8279E01
514,25	2,8487E01
514,61	2,8860E01
514,97	2,9293E01
515,33	2,9578E01
515,70	2,9645E01
516,06	2,9942E01
516,42	3,0267E01
516,78	3,0443E01
517,15	3,0548E01
517,51	3,0788E01
517,87	3,1008E01
518,23	3,1177E01
518,60	3,1407E01
518,96	3,1482E01
519,32	3,1615E01
519,68	3,1829E01
520,04	3,1874E01
520,41	3,1938E01
520,77	3,2057E01
521,13	3,2133E01
521,49	3,2274E01
521,85	3,2308E01
522,22	3,2266E01
522,58	3,2350E01
522,94	3,2333E01
523,30	3,2237E01
523,66	3,2161E01
524,02	3,2229E01
524,38	3,2230E01
524,75	3,2173E01
525,11	3,2069E01
525,47	3,1855E01
525,83	3,1924E01
526,19	3,1613E01
526,55	3,1531E01
526,91	3,1378E01
527,27	3,1381E01
527,64	3,1110E01
528,00	3,1002E01
528,36	3,0800E01
528,72	3,0699E01
529,08	3,0339E01
529,44	3,0221E01
529,80	3,0062E01
530,16	2,9789E01
530,52	2,9498E01
530,88	2,9254E01
531,24	2,9073E01
531,60	2,8972E01
531,96	2,8446E01
532,32	2,8314E01
532,68	2,8228E01
533,04	2,7839E01
533,40	2,7645E01
533,77	2,7183E01
534,13	2,7107E01
534,49	2,6614E01
534,85	2,6278E01
535,21	2,5929E01
535,57	2,5802E01
535,93	2,5448E01
536,29	2,4952E01
536,65	2,4581E01
537,00	2,4176E01
537,36	2,3909E01
537,72	2,3544E01
538,08	2,2928E01
538,44	2,2803E01
538,80	2,2229E01
539,16	2,1908E01
539,52	2,1495E01
539,88	2,1185E01
540,24	2,0754E01
540,60	2,0661E01
540,96	1,9865E01
541,32	1,9767E01
541,68	1,9118E01
542,04	1,9031E01
542,40	1,8529E01
542,75	1,8293E01
543,11	1,7936E01
543,47	1,7413E01
543,83	1,7430E01
544,19	1,6835E01
544,55	1,6516E01
544,91	1,6200E01
545,27	1,6026E01
545,63	1,5390E01
545,98	1,5066E01
546,34	1,4784E01
546,70	1,4560E01
547,06	1,4214E01
547,42	1,3841E01
547,78	1,3659E01
548,13	1,3211E01
548,49	1,3066E01
548,85	1,2609E01
549,21	1,2407E01
549,57	1,1876E01
549,93	1,1945E01
550,28	1,1710E01
550,64	1,1027E01
551,00	1,0982E01
551,36	1,0570E01
551,71	1,0341E01
552,07	1,0052E01
552,43	9,9726E00
552,79	9,5325E00
553,15	9,2420E00
553,50	9,2454E00
553,86	8,8903E00
554,22	8,6827E00
554,58	8,3004E00
554,93	8,2271E00
555,29	8,0239E00
555,65	7,7812E00
556,01	7,7160E00
556,36	7,4269E00
556,72	7,1167E00
557,08	6,9662E00
557,43	6,7862E00
557,79	6,6997E00
558,15	6,3942E00
558,50	6,3687E00
558,86	6,1959E00
559,22	5,9664E00
559,58	5,9417E00
559,93	5,6089E00
560,29	5,5432E00
560,65	5,4472E00
561,00	5,2153E00
561,36	5,1697E00
561,71	4,9668E00
562,07	4,8010E00
562,43	4,7975E00
562,78	4,6518E00
563,14	4,5256E00
563,50	4,4313E00
563,85	4,2784E00
564,21	4,1657E00
564,57	4,0749E00
564,92	3,9652E00
565,28	3,8969E00
565,63	3,7800E00
565,99	3,6655E00
566,35	3,4725E00
566,70	3,5332E00
567,06	3,4488E00
567,41	3,3247E00
567,77	3,2714E00
568,12	3,0983E00
568,48	3,0335E00
568,83	2,9774E00
569,19	2,9294E00
569,55	2,9536E00
569,90	2,7968E00
570,26	2,6469E00
570,61	2,6198E00
570,97	2,5217E00
571,32	2,5953E00
571,68	2,4183E00
572,03	2,3766E00
572,39	2,3564E00
572,74	2,1904E00
573,10	2,1783E00
573,45	2,1174E00
573,81	2,0694E00
574,16	2,0838E00
574,52	1,9662E00
574,87	2,0143E00
575,23	1,8124E00
575,58	1,8673E00
575,94	1,7985E00
576,29	1,7308E00
576,64	1,6320E00
577,00	1,6030E00
577,35	1,5951E00
577,71	1,5204E00
578,06	1,4746E00
578,42	1,4600E00
578,77	1,4024E00
579,12	1,3714E00
579,48	1,3237E00
579,83	1,4146E00
580,19	1,2364E00
580,54	1,2026E00
580,89	1,2249E00
581,25	1,1324E00
581,60	1,1896E00
581,96	1,1091E00
582,31	1,0740E00
582,66	1,0495E00
583,02	1,0593E00
583,37	9,9241E-01
583,72	9,6169E-01
584,08	9,0240E-01
584,43	9,9971E-01
584,78	8,5226E-01
585,14	8,7804E-01
585,49	8,9436E-01
585,84	7,5158E-01
586,20	8,0161E-01
586,55	7,6035E-01
586,90	7,7667E-01
587,26	7,2954E-01
587,61	7,2021E-01
587,96	6,4717E-01
588,32	6,5930E-01
588,67	6,8377E-01
589,02	6,6879E-01
589,37	6,0030E-01
589,73	5,6981E-01
590,08	5,7914E-01
590,43	6,1743E-01
590,78	5,9521E-01
591,14	5,6037E-01
591,49	4,6296E-01
591,84	5,2199E-01
592,19	4,4949E-01
592,55	4,0303E-01
592,90	4,1466E-01
593,25	3,7083E-01
593,60	4,1746E-01
593,96	4,4876E-01
594,31	4,0597E-01
594,66	3,6310E-01
595,01	3,1877E-01
595,36	3,3042E-01
595,72	3,5056E-01
596,07	3,1565E-01
596,42	2,8782E-01
596,77	3,1514E-01
597,12	2,9015E-01
597,47	3,0764E-01
597,83	3,1375E-01
598,18	2,7847E-01
598,53	2,7021E-01
598,88	2,5202E-01
599,23	2,6804E-01
599,58	2,4551E-01
599,93	2,5725E-01
600,29	2,5042E-01
600,64	1,8479E-01
600,99	2,0499E-01
601,34	2,5112E-01
601,69	1,1918E-01
602,04	1,9139E-01
602,39	1,2389E-01
602,74	1,6161E-01
603,09	1,7628E-01
603,44	1,8810E-01
603,80	1,6372E-01
604,15	1,5087E-01
604,50	1,7432E-01
604,85	1,5571E-01
605,20	1,2248E-01
605,55	1,8258E-01
605,90	1,4620E-02
606,25	5,5659E-02
606,60	1,4083E-01
606,95	7,4939E-02
607,30	8,3876E-02
607,65	5,3074E-02
608,00	7,5317E-02
608,35	2,8116E-02
608,70	2,3714E-02
609,05	5,9375E-02
609,40	6,3967E-02
609,75	8,4954E-02
610,10	4,1835E-02
610,45	4,0417E-02
610,80	-1,0500E-02
611,15	-7,5124E-03
611,50	8,1324E-02
611,85	-9,0560E-03
612,20	2,2688E-02
612,55	-1,9708E-02
612,90	1,3673E-02
613,25	-4,5672E-02
613,60	0,0000E00
613,95	-1,9885E-02
614,30	6,4415E-02
614,64	-1,8451E-02
614,99	-3,5459E-02
615,34	-2,3185E-02
615,69	-2,6336E-02
616,04	-3,1074E-03
616,39	-2,1807E-02
616,74	-2,6547E-02
617,09	-3,1314E-03
617,44	-8,6329E-02
617,79	-6,9207E-02
618,13	-3,9420E-02
618,48	0,0000E00
618,83	-1,0150E-01
619,18	-5,4046E-02
619,53	-4,7819E-02
619,88	-8,1483E-02
620,23	-8,3314E-02
620,57	-8,8343E-02
620,92	-1,0306E-01
621,27	-2,7461E-02
621,62	8,0978E-03
621,97	-4,5459E-02
622,32	-6,1881E-02
622,66	-5,3860E-02
623,01	-8,8380E-02
623,36	-1,5923E-01
623,71	-1,4813E-02
624,06	-5,6104E-02
624,40	-1,1418E-01
624,75	-8,2977E-02
625,10	-9,6501E-02
625,45	-8,6781E-02
625,80	-9,2000E-02
626,14	-8,7211E-02
626,49	-1,1439E-01
626,84	-9,7833E-02
627,19	-1,1502E-01
627,53	-8,6510E-02
627,88	-8,3348E-02
628,23	-1,1084E-01
628,57	-8,8943E-02
628,92	-1,0288E-01
629,27	-6,8758E-02
629,62	-1,9316E-01
629,96	-1,0889E-01
630,31	-9,8801E-02
630,66	-9,0349E-02
631,00	-6,0967E-02
631,35	-1,1700E-01
631,70	-9,8089E-02
632,05	-9,3089E-02
632,39	-1,2859E-01
632,74	-1,3247E-01
633,09	-1,3819E-01
633,43	-9,5934E-02
633,78	-1,5679E-01
634,12	-1,3218E-01
634,47	-1,7024E-01
634,82	-1,2759E-01
635,16	-1,2073E-01
635,51	-1,0658E-01
635,86	-1,0871E-01
636,20	-1,1261E-01
636,55	-1,6208E-01
636,90	-1,6248E-01
637,24	-1,0437E-01
637,59	-1,5790E-01
637,93	-1,1966E-01
638,28	-1,3470E-01
638,63	-1,5727E-01
638,97	-1,7069E-01
639,32	-2,1024E-01
639,66	-2,0147E-01
640,01	-9,3530E-02
640,35	-1,9514E-01
640,70	-1,5236E-01
641,04	-7,3529E-02
641,39	-1,4748E-01
641,74	-1,5542E-01
642,08	-1,8246E-01
642,43	-1,1243E-01
642,77	-1,6429E-01
643,12	-1,5702E-01
643,46	-1,5741E-01
643,81	-2,5009E-01
644,15	-1,9669E-01
644,50	-1,5079E-01
644,84	-1,2982E-01
645,19	-2,3509E-01
645,53	-1,7727E-01
645,88	-8,7886E-02
646,22	-9,5908E-02
646,57	-2,0214E-01
646,91	-1,8100E-01
647,26	-1,9908E-01
647,60	-1,2650E-01
647,94	-1,4267E-01
648,29	-2,1255E-01
648,63	-1,6926E-01
648,98	-2,2947E-01
649,32	-9,6021E-02
649,67	-2,2660E-01
650,01	-1,8493E-01
650,36	-1,4104E-01
650,70	-2,0807E-01
651,04	-2,0262E-01
651,39	-1,6044E-01
651,73	-2,2395E-01
652,08	-1,7350E-01
652,42	-1,8821E-01
652,76	-2,0718E-01
653,11	-1,9535E-01
653,45	-2,0612E-01
653,79	-2,1493E-01
654,14	-1,6573E-01
654,48	-2,2211E-01
654,83	-1,9143E-01
655,17	-2,6693E-01
655,51	-2,4872E-01
655,86	-2,4720E-01
656,20	-2,6461E-01
656,54	-1,4100E-01
656,89	-1,8986E-01
657,23	-2,1145E-01
657,57	-1,2931E-01
657,91	-2,3584E-01
658,26	-1,4484E-01
658,60	-1,8575E-01
658,94	-1,9476E-01
659,29	-1,9739E-01
659,63	-1,9350E-01
659,97	-2,2640E-01
660,32	-1,9663E-01
660,66	-1,6021E-01
661,00	-2,0838E-01
661,34	-2,1757E-01
661,69	-1,3521E-01
662,03	-1,6400E-01
662,37	-2,5205E-01
662,71	-1,5386E-01
663,06	-2,0485E-01
663,40	-1,9435E-01
663,74	-1,8592E-01
664,08	-2,8416E-01
664,42	-1,7816E-01
664,77	-2,4777E-01
665,11	-2,4837E-01
665,45	-2,0644E-01
665,79	-2,1146E-01
666,13	-2,4580E-01
666,48	-2,1250E-01
666,82	-1,7682E-01
667,16	-2,8644E-01
667,50	-2,2793E-01
667,84	-2,7651E-01
668,18	-2,1758E-01
668,53	-1,9746E-01
668,87	-2,5557E-01
669,21	-2,9552E-01
669,55	-2,8003E-01
669,89	-2,7863E-01
670,23	-1,4668E-01
670,57	-1,4713E-01
670,92	-3,7228E-01
671,26	-1,9021E-01
671,60	-3,7203E-01
671,94	-2,6688E-01
672,28	-2,5351E-01
672,62	-1,4257E-01
672,96	-2,3580E-01
673,30	-2,2463E-01
673,64	-2,4433E-01
673,98	-2,7386E-01
674,33	-1,8308E-01
674,67	-2,7787E-01
675,01	-1,7449E-01
675,35	-1,8477E-01
675,69	-1,9752E-01
676,03	-2,0785E-01
676,37	-2,9184E-01
676,71	-1,6483E-01
677,05	-2,6151E-01
677,39	-2,3266E-01
677,73	-2,7063E-01
678,07	-1,9926E-01
678,41	-1,8234E-01
678,75	-2,8296E-01
679,09	-2,6366E-01
679,43	-1,8887E-01
679,77	-2,1477E-01
680,11	-2,6101E-01
680,45	-3,5840E-01
680,79	-3,4413E-01
681,13	-2,0707E-01
681,47	-2,9744E-01
681,81	-2,0824E-01
682,15	-1,2378E-01
682,49	-2,7954E-01
682,83	-2,7517E-01
683,17	-2,4477E-01
683,51	-2,7935E-01
683,84	-2,3828E-01
684,18	-2,2588E-01
684,52	-2,2131E-01
684,86	-2,9068E-01
685,20	-2,7300E-01
685,54	-1,8077E-01
685,88	-2,5063E-01
686,22	-3,2886E-01
686,56	-1,9310E-01
686,90	-2,5831E-01
687,24	-2,8064E-01
687,57	-2,4093E-01
687,91	-1,6289E-01
688,25	-2,8049E-01
688,59	-1,8302E-01
688,93	-3,2054E-01
689,27	-2,8850E-01
689,61	-3,5008E-01
689,94	-2,1562E-01
690,28	-2,2735E-01
690,62	-1,9455E-01
690,96	-2,7887E-01
691,30	-2,9361E-01
691,64	-3,1418E-01
691,97	-1,9690E-01
692,31	-3,4413E-01
692,65	-1,8669E-01
692,99	-2,7522E-01
693,33	-1,8770E-01
693,66	-2,9666E-01
694,00	-3,4031E-01
694,34	-2,9833E-01
694,68	-2,5014E-01
695,01	-2,5086E-01
695,35	-1,9661E-01
695,69	-2,5222E-01
696,03	-2,3251E-01
696,36	-3,1473E-01
696,70	-2,6008E-01
697,04	-3,5178E-01
697,38	-2,4398E-01
697,71	-4,2456E-01
698,05	-1,7440E-01
698,39	-1,9868E-01
698,72	-2,2601E-01
699,06	-1,7890E-01
699,40	-4,4856E-01
699,74	-3,0002E-01
700,07	-3,5207E-01
700,41	-1,9920E-01
700,75	-2,4518E-01
701,08	-3,1269E-01
701,42	-2,2834E-01
701,76	-2,5963E-01
702,09	-2,8504E-01
702,43	-2,7979E-01
702,77	-2,4370E-01
703,10	-1,8872E-01
703,44	-3,9411E-01
703,77	-4,1087E-01
704,11	-2,9658E-01
704,45	-3,2565E-01
704,78	-2,5120E-01
705,12	-3,6535E-01
705,46	-4,1678E-01
705,79	-3,8612E-01
706,13	-2,3799E-01
706,46	-3,2446E-01
706,80	-3,2219E-01
707,14	-3,6773E-01
707,47	-3,0463E-01
707,81	-3,1181E-01
708,14	-3,0621E-01
708,48	-2,4569E-01
708,81	-2,7231E-01
709,15	-3,3157E-01
709,48	-1,3041E-01
709,82	-2,0926E-01
710,16	-2,2624E-01
710,49	-3,7489E-01
710,83	-3,3310E-01
711,16	-3,5398E-01
711,50	-4,5115E-01
711,83	-3,8261E-01
712,17	-3,3693E-01
712,50	-2,4091E-01
712,84	-3,4225E-01
713,17	-2,4897E-01
713,51	-3,7135E-01
713,84	-3,7252E-01
714,18	-3,3281E-01
714,51	-4,8038E-01
714,85	-4,1682E-01
715,18	-2,8793E-01
715,51	-3,0264E-01
715,85	-4,5544E-01
716,18	-3,2879E-01
716,52	-3,3353E-01
716,85	-4,4274E-01
717,19	-3,7771E-01
717,52	-3,1229E-01
717,86	-3,0646E-01
718,19	-3,4292E-01
718,52	-3,9391E-01
718,86	-2,5640E-01
719,19	-2,8584E-01
719,53	-3,4425E-01
719,86	-3,4925E-01
720,19	-2,9991E-01
720,53	-4,3519E-01
720,86	-3,1294E-01
721,19	-2,3738E-01
721,53	-2,5650E-01
721,86	-3,4185E-01
722,20	-2,5073E-01
722,53	-3,9956E-01
722,86	-3,6745E-01
723,20	-3,6101E-01
723,53	-3,3942E-01
723,86	-4,5618E-01
724,20	-3,7106E-01
724,53	-2,2549E-01
724,86	-3,7297E-01
725,19	-3,0948E-01
725,53	-3,1399E-01
725,86	-3,0705E-01
726,19	-4,1791E-01
726,53	-4,3779E-01
726,86	-3,9311E-01
727,19	-1,9519E-01
727,53	-3,1064E-01
727,86	-5,1896E-01
728,19	-3,8131E-01
728,52	-3,6284E-01
728,86	-4,3344E-01
729,19	-2,7926E-01
729,52	-3,2266E-01
729,85	-4,0895E-01
730,19	-3,7090E-01
730,52	-2,5034E-01
730,85	-3,0560E-01
731,18	-3,6125E-01
731,51	-1,4955E-01
731,85	-3,9453E-01
732,18	-3,7163E-01
732,51	-3,5270E-01
732,84	-4,4089E-01
733,17	-4,1008E-01
733,51	-4,5898E-01
733,84	-2,8004E-01
734,17	-4,7732E-01
734,50	-4,7058E-01
734,83	-3,9922E-01
735,16	-3,2735E-01
735,50	-5,3895E-01
735,83	-3,2097E-01
736,16	-3,8280E-01
736,49	-3,4282E-01
736,82	-3,6409E-01
737,15	-3,9783E-01
737,48	-4,8100E-01
737,81	-2,3078E-01
738,15	-3,0579E-01
738,48	-3,5633E-01
738,81	-3,3232E-01
739,14	-3,7874E-01
739,47	-3,6715E-01
739,80	-3,3876E-01
740,13	-4,4056E-01
740,46	-3,0712E-01
740,79	-3,3323E-01
741,12	-3,2578E-01
741,45	-5,2187E-01
741,78	-4,9335E-01
742,11	-5,8418E-01
742,44	-3,9764E-01
742,78	-3,8608E-01
743,11	-4,2163E-01
743,44	-4,2705E-01
743,77	-4,2362E-01
744,10	-3,7285E-01
744,43	-3,6950E-01
744,76	-2,4404E-01
745,09	-3,5813E-01
745,42	-5,1239E-01
745,75	-3,0298E-01
746,08	-4,8005E-01
746,41	-5,7389E-01
746,74	-4,2933E-01
747,07	-4,2638E-01
747,40	-4,7227E-01
747,72	-3,7070E-01
748,05	-3,5847E-01
748,38	-3,2806E-01
748,71	-5,9984E-01
749,04	-3,8450E-01
749,37	-5,2628E-01
749,70	-3,4124E-01
750,03	-3,6511E-01
750,36	-6,5004E-01
750,69	-3,3973E-01
751,02	-4,6058E-01
751,35	-5,6832E-01
751,68	-5,8857E-01
752,00	-6,2294E-01
752,33	-3,5903E-01
752,66	-5,0043E-01
752,99	-4,0819E-01
753,32	-6,2137E-01
753,65	-6,1863E-01
753,98	-6,3000E-01
754,31	-5,1801E-01
754,63	-4,8161E-01
754,96	-5,4050E-01
755,29	-4,8461E-01
755,62	-5,1984E-01
755,95	-3,2349E-01
756,28	-5,3271E-01
756,60	-5,0034E-01
756,93	-5,4080E-01
757,26	-5,2779E-01
757,59	-2,3045E-01
757,92	-4,9660E-01
758,24	-5,4733E-01
758,57	-5,3940E-01
758,90	-3,9219E-01
759,23	-6,8719E-01
759,56	-2,7478E-01
759,88	-6,1164E-01
760,21	-5,1804E-01
760,54	-6,0530E-01
760,87	-3,6441E-01
761,19	-7,2610E-01
761,52	-6,7765E-01
761,85	-4,2430E-01
762,18	-4,5120E-01
762,50	-4,9888E-01
762,83	-4,6440E-01
763,16	-3,2088E-01
763,49	-5,5548E-01
763,81	-6,0927E-01
764,14	-2,5086E-01
764,47	-4,6136E-01
764,79	-6,5213E-01
765,12	-4,6956E-01
765,45	-5,1325E-01
765,77	-3,4503E-01
766,10	-3,7269E-01
766,43	-5,8226E-01
766,75	-5,6277E-01
767,08	-5,4320E-01
767,41	-4,6936E-01
767,73	-5,2500E-01
768,06	-4,7768E-01
768,39	-4,6320E-01
768,71	-4,2095E-01
769,04	-1,0420E-01
769,36	-4,9505E-01
769,69	-6,4603E-01
770,02	-4,9313E-01
770,34	-6,6687E-01
770,67	-5,4091E-01
770,99	-4,5346E-01
771,32	-3,9312E-01
771,65	-3,8897E-01
771,97	-5,7680E-01
772,30	-8,0023E-01
772,62	-3,9879E-01
772,95	-4,8610E-01
773,27	-2,2945E-01
773,60	-7,0820E-01
773,93	-8,0933E-01
774,25	-5,5095E-01
774,58	-4,4226E-01
774,90	-8,1800E-01
775,23	-5,3360E-01
775,55	-5,1803E-01
775,88	-5,6734E-01
776,20	-6,2307E-01
776,53	-6,0199E-01
776,85	-6,6477E-01
777,18	-4,6306E-01
777,50	-6,3401E-01
777,83	-7,5212E-01
778,15	-4,5099E-01
778,48	-6,1202E-01
778,80	-5,6581E-01
779,13	-6,9179E-01
779,45	-6,4535E-01
779,78	-3,5511E-01
780,10	-4,0010E-01
780,42	-6,0858E-01
780,75	-5,9813E-01
781,07	-6,0021E-01
781,40	-5,8924E-01
781,72	-6,3531E-01
782,05	-2,9931E-01
782,37	-3,1274E-01
782,69	-6,6480E-01
783,02	-6,2062E-01
783,34	-5,1887E-01
783,67	-4,8746E-01
783,99	-3,3368E-01
784,31	-5,0699E-01
784,64	-4,7509E-01
784,96	-6,6141E-01
785,28	-6,5481E-01
785,61	-5,1331E-01
785,93	-9,1659E-01
786,25	-5,5083E-01
786,58	-7,6814E-01
786,90	-4,6038E-01
787,22	-6,0038E-01
787,55	-5,1652E-01
787,87	-8,1518E-01
788,19	-7,1184E-01
788,52	-6,0259E-01
788,84	-6,0155E-01
789,16	-7,5229E-01
789,49	-6,1841E-01
789,81	-8,5018E-01
790,13	-7,0415E-01
790,46	-5,0840E-01
790,78	-5,8891E-01
791,10	-7,0711E-01
791,42	-4,6219E-01
791,75	-5,1791E-01
792,07	-6,1105E-01
792,39	-5,5433E-01
792,71	-6,1588E-01
793,04	-8,0803E-01
793,36	-5,7781E-01
793,68	-9,3090E-01
794,00	-5,4590E-01
794,32	-2,4805E-01
794,65	-3,8435E-01
794,97	-6,6978E-01
795,29	-7,5634E-01
795,61	-6,8819E-01
795,93	-5,5165E-01
796,26	-7,8134E-01
796,58	-7,1998E-01
796,90	-5,2798E-01
797,22	-6,2195E-01
797,54	-4,3581E-01
797,87	-3,6151E-01
798,19	-4,6809E-01
798,51	-7,4331E-01
798,83	-6,5083E-01
799,15	-8,8364E-01
799,47	-7,7222E-01
799,79	-5,8505E-01
800,12	-8,1886E-01
800,44	-5,2382E-01
800,76	-5,5645E-01
801,08	-5,8927E-01
801,40	-6,9221E-01
801,72	-7,5744E-01
802,04	-5,6804E-01
802,36	-6,9122E-01
802,68	-8,5372E-01
803,00	-7,4001E-01
803,32	-6,0002E-01
803,65	-5,8247E-01
803,97	-6,8139E-01
804,29	-7,2239E-01
804,61	-8,5516E-01
804,93	-6,4805E-01
805,25	-6,6968E-01
805,57	-5,2031E-01
805,89	-7,3956E-01
806,21	-4,9664E-01
806,53	-4,5879E-01
806,85	-8,3421E-01
807,17	-6,2276E-01
807,49	-4,7725E-01
807,81	-5,6003E-01
808,13	-6,2277E-01
808,45	-5,4362E-01
808,77	-6,0733E-01
809,09	-8,9032E-01
809,41	-5,6379E-01
809,73	-4,3499E-01
810,05	-4,7106E-01
810,37	-5,7021E-01
810,69	-6,1430E-01
811,01	-5,1858E-01
811,33	-6,4697E-01
811,64	-7,2041E-01
811,96	-7,8679E-01
812,28	-8,5374E-01
812,60	-5,7854E-01
812,92	-6,3821E-01
813,24	-7,7015E-01
813,56	-6,0698E-01
813,88	-8,4148E-01
814,20	-6,6275E-01
814,52	-5,1159E-01
814,83	-7,6342E-01
815,15	-1,0317E00
815,47	-5,2540E-01
815,79	-9,5034E-01
816,11	-5,5921E-01
816,43	-8,0096E-01
816,75	-7,2897E-01
817,06	-7,6231E-01
817,38	-8,6377E-01
817,70	-8,4424E-01
818,02	-1,1841E00
818,34	-8,2833E-01
818,66	-6,0847E-01
818,97	-7,9678E-01
819,29	-6,6837E-01
819,61	-9,5955E-01
819,93	-6,6568E-01
820,25	-8,4919E-01
820,56	-6,4725E-01
820,88	-1,0061E00
821,20	-8,2782E-01
821,52	-8,8702E-01
821,84	-7,9427E-01
822,15	-7,1689E-01
822,47	-7,5185E-01
822,79	-8,3612E-01
823,11	-8,3112E-01
823,42	-8,5112E-01
823,74	-8,4600E-01
824,06	-1,0471E00
824,37	-9,1073E-01
824,69	-1,1550E00
825,01	-8,9226E-01
825,33	-9,0413E-01
825,64	-1,0251E00
825,96	-9,7839E-01
826,28	-8,6299E-01
826,59	-1,3080E00
826,91	-1,3464E00
827,23	-6,2446E-01
827,54	-1,2102E00
827,86	-1,0424E00
828,18	-1,1843E00
828,49	-8,0686E-01
828,81	-8,3552E-01
829,13	-1,0039E00
829,44	-8,2367E-01
829,76	-7,1259E-01
830,08	-1,1832E00
830,39	-8,5967E-01
830,71	-7,3800E-01
831,02	-1,1695E00
831,34	-9,8551E-01
831,66	-6,9229E-01
831,97	-8,7570E-01
832,29	-7,4334E-01
832,60	-7,6461E-01
832,92	-8,8635E-01
833,23	-7,2447E-01
833,55	-9,5729E-01
833,87	-9,8868E-01
834,18	-1,1969E00
834,50	-1,0797E00
834,81	-7,2880E-01
835,13	-1,0221E00
835,44	-1,0817E00
835,76	-8,3991E-01
836,07	-9,0898E-01
836,39	-9,9739E-01
836,70	-7,4337E-01
837,02	-8,7946E-01
837,33	-6,7166E-01
837,65	-1,0977E00
837,96	-6,4759E-01
838,28	-1,4453E00
838,59	-9,8330E-01
838,91	-1,0258E00
839,22	-1,4011E00
839,54	-9,7281E-01
839,85	-8,9665E-01
840,17	-1,0274E00
840,48	-7,3274E-01
840,80	-5,9500E-01
841,11	-1,3318E00
841,43	-1,0651E00
841,74	-1,0066E00
842,05	-1,3575E00
842,37	-4,2022E-01
842,68	-1,0335E00
843,00	-7,6535E-01
843,31	-1,0614E00
843,62	-5,7842E-01
843,94	-7,7504E-01
844,25	-1,0346E00
844,57	-8,9504E-01
844,88	-9,1014E-01
845,19	-8,6291E-01
845,51	-1,3272E00
845,82	-1,0389E00
846,13	-1,0114E00
846,45	-1,3223E00
846,76	-1,0405E00
847,07	-1,3749E00
847,39	-1,0590E00
847,70	-7,8388E-01
848,01	-1,0787E00
848,33	-1,5915E00
848,64	-9,3458E-01
848,95	-6,8702E-01
849,27	-1,5437E00
849,58	-1,2092E00
849,89	-7,1746E-01
850,21	-1,1414E00
850,52	-1,4128E00
850,83	-1,3062E00
851,14	-9,3003E-01
851,46	-1,1129E00
851,77	-1,0720E00
852,08	-1,4270E00
852,39	-1,3649E00
852,71	-1,4271E00
853,02	-9,9673E-01
853,33	-8,6157E-01
853,64	-1,0949E00
853,96	-1,0757E00
854,27	-1,0683E00
854,58	-9,4422E-01
854,89	-1,4738E00
855,20	-1,1035E00
855,52	-1,0129E00
855,83	-7,7971E-01
856,14	-1,3518E00
856,45	-1,1427E00
856,76	-9,7999E-01
857,07	-1,1519E00
857,39	-1,0358E00
857,70	-1,1719E00
858,01	-1,5394E00
858,32	-1,6062E00
858,63	-8,7932E-01
858,94	-1,6302E00
859,25	-9,9709E-01
859,57	-1,2112E00
859,88	-1,3651E00
860,19	-1,5817E00
860,50	-1,6759E00
860,81	-1,5569E00
861,12	-1,5381E00
861,43	-1,1394E00
861,74	-1,4869E00
862,05	-1,1994E00
862,36	-9,3535E-01
862,67	-1,2222E00
862,99	-8,7772E-01
863,30	-1,3345E00
863,61	-1,4708E00
863,92	-1,0715E00
864,23	-1,4039E00
864,54	-1,0282E00
864,85	-1,1649E00
865,16	-1,2627E00
865,47	-1,1612E00
865,78	-1,8229E00
866,09	-1,4130E00
866,40	-1,7036E00
866,71	-1,3846E00
867,02	-1,1318E00
867,33	-1,5476E00
867,64	-8,8000E-01
867,95	-6,6281E-01
868,26	-8,4634E-01
868,57	-1,4917E00
868,88	-1,8352E00
869,19	-1,1262E00
869,50	-1,2160E00
869,81	-1,3782E00
870,12	-1,4713E00
870,42	-1,3347E00
870,73	-1,2836E00
871,04	-1,5228E00
871,35	-1,0348E00
871,66	-1,0104E00
871,97	-2,1493E00
872,28	-1,5087E00
872,59	-9,6674E-01
872,90	-2,3640E00
873,21	-9,9294E-01
873,52	-1,7692E00
873,82	-1,1707E00
874,13	-1,2541E00
874,44	-1,2298E00
874,75	-1,9164E00
875,06	-1,6478E00
875,37	-1,5310E00
875,68	-1,4143E00
875,98	-1,4851E00
876,29	-1,1903E00
876,60	-1,8823E00
876,91	-1,0104E00
877,22	-1,4673E00
877,52	-1,4096E00
877,83	-1,7752E00
878,14	-1,3104E00
878,45	-1,9109E00
878,76	-1,7890E00
879,06	-1,0992E00
879,37	-2,2095E00
879,68	-1,8520E00
879,99	-2,1838E00
880,30	-1,6164E00
880,60	-2,1723E00
880,91	-2,1828E00
881,22	-2,0393E00
881,53	-1,7364E00
881,83	-1,0116E00
882,14	-2,2606E00
882,45	-2,2008E00
882,75	-1,4146E00
883,06	-1,8292E00
883,37	-1,4794E00
883,68	-1,5577E00
883,98	-1,9771E00
884,29	-1,8048E00
884,60	-1,8470E00
884,90	-2,5978E00
885,21	-1,9681E00
885,52	-2,5036E00
885,82	-1,8862E00
886,13	-1,9298E00
886,44	-1,5654E00
886,74	-1,2553E00
887,05	-2,3126E00
887,36	-1,6123E00
887,66	-1,9680E00
887,97	-1,7488E00
888,27	-1,0814E00
888,58	-2,2415E00
888,89	-1,6466E00
889,19	-8,0654E-01
889,50	-1,8210E00
889,80	-2,0684E00
890,11	-1,0360E00
890,42	-2,7725E00
890,72	-2,0028E00
891,03	-1,8357E00
891,33	-2,1607E00
891,64	-2,1444E00
891,94	-2,4513E00
892,25	-2,0362E00
892,56	-1,5041E00
892,86	-1,6016E00
893,17	-1,8523E00
893,47	-2,2178E00
893,78	-1,4927E00
894,08	-2,1634E00
894,39	-2,0695E00
894,69	-1,7830E00
895,00	-1,4775E00
895,30	-1,5936E00
895,61	-2,0943E00
895,91	-1,8465E00
896,22	-2,2702E00
896,52	-2,3098E00
896,83	-1,5599E00
897,13	-2,0229E00
897,43	-1,7351E00
897,74	-1,3505E00
898,04	-1,1003E00
898,35	-1,8538E00
898,65	-1,8354E00
898,96	-1,9322E00
899,26	-2,0106E00
899,57	-1,4319E00
899,87	-2,5362E00
900,17	-2,3629E00
900,48	-1,5698E00
900,78	-2,3073E00
901,09	-1,9592E00
901,39	-1,6701E00
901,69	-1,6322E00
902,00	-2,0999E00
902,30	-1,9082E00
902,60	-1,7741E00
902,91	-2,4997E00
903,21	-1,7018E00
903,51	-2,0188E00
903,82	-2,1216E00
904,12	-1,7138E00
904,42	-2,0742E00
904,73	-1,8617E00
905,03	-1,9462E00
905,33	-2,4700E00
905,64	-1,9169E00
905,94	-2,4620E00
906,24	-2,3871E00
906,55	-1,3683E00
906,85	-1,6141E00
907,15	-2,3058E00
907,45	-2,3521E00
907,76	-1,8694E00
908,06	-1,5682E00
908,36	-1,6545E00
908,66	-1,9474E00
908,97	-2,1172E00
909,27	-2,2064E00
909,57	-2,2127E00
909,87	-1,4299E00
910,18	-2,5168E00
910,48	-2,2542E00
910,78	-1,6344E00
911,08	-2,0190E00
911,39	-2,0483E00
911,69	-1,7377E00
911,99	-2,0423E00
912,29	-3,0999E00
912,59	-2,7278E00
912,89	-2,7625E00
913,20	-1,9097E00
913,50	-2,4645E00
913,80	-2,4555E00
914,10	-3,5707E00
914,40	-2,8360E00
914,70	-2,6064E00
915,01	-2,6218E00
915,31	-1,9151E00
915,61	-3,2843E00
915,91	-3,2351E00
916,21	-1,8112E00
916,51	-2,6751E00
916,81	-1,3686E00
917,11	-2,4968E00
917,41	-2,5105E00
917,72	-3,1414E00
918,02	-3,4917E00
918,32	-2,5788E00
918,62	-2,6656E00
918,92	-2,1013E00
919,22	-1,9188E00
919,52	-3,0775E00
919,82	-3,5613E00
920,12	-2,4213E00
920,42	-2,3623E00
920,72	-2,3028E00
921,02	-2,3673E00
921,32	-2,4097E00
921,62	-2,6317E00
921,92	-3,1903E00
922,22	-3,5514E00
922,52	-2,4802E00
922,82	-2,8928E00
923,12	-3,4975E00
923,42	-2,9067E00
923,72	-1,8258E00
924,02	-3,0263E00
924,32	-3,4556E00
924,62	-2,1378E00
924,92	-2,6230E00
925,22	-3,1716E00
925,52	-2,7192E00
925,82	-2,9957E00
926,12	-2,3641E00
926,42	-3,2450E00
926,72	-2,1437E00
927,02	-2,7456E00
927,31	-3,1232E00
927,61	-2,9712E00
927,91	-3,6814E00
928,21	-3,4384E00
928,51	-4,1905E00
928,81	-1,4680E00
929,11	-2,4647E00
929,41	-2,8866E00
929,71	-2,6276E00
930,00	-3,1869E00
930,30	-2,7987E00
930,60	-3,3664E00
930,90	-2,8779E00
931,20	-3,8193E00
931,50	-3,3632E00
931,79	-3,7653E00
932,09	-3,2007E00
932,39	-4,0190E00
932,69	-3,8219E00
932,99	-3,2714E00
933,29	-3,4128E00
933,58	-4,4865E00
933,88	-3,2804E00
934,18	-4,4145E00
934,48	-4,6897E00
934,77	-3,5475E00
935,07	-4,5381E00
935,37	-3,6769E00
935,67	-4,8925E00
935,97	-3,1122E00
936,26	-4,0786E00
936,56	-5,1532E00
936,86	-3,9966E00
937,15	-4,8956E00
937,45	-3,4876E00
937,75	-3,1571E00
938,05	-5,3721E00
938,34	-4,2173E00
938,64	-4,4770E00
938,94	-5,8148E00
939,23	-3,5546E00
939,53	-4,0043E00
939,83	-3,9329E00
940,12	-5,1077E00
940,42	-8,2167E00
940,72	-5,1951E00
941,01	-4,4955E00
941,31	-3,5000E00
941,61	-5,6866E00
941,90	-5,0555E00
942,20	-6,6035E00
942,50	-3,8944E00
942,79	-3,8345E00
943,09	-4,2963E00
943,38	-7,0917E00
943,68	-6,9307E00
943,98	-5,0604E00
944,27	-5,4856E00
944,57	-5,1653E00
944,86	-6,0915E00
945,16	-9,9377E00
945,46	-6,9428E00
945,75	-9,1611E00
946,05	-6,3811E00
946,34	-7,7103E00
946,64	-6,9000E00
946,93	-5,6197E00
947,23	-7,3426E00
947,52	-6,9034E00
947,82	-7,4523E00
948,12	-5,8891E00
948,41	-5,2470E00
948,71	-6,6588E00
949,00	-5,4118E00
949,30	-7,7727E00
949,59	-7,9842E00
949,89	-6,3146E00
950,18	-6,3960E00
950,48	-5,9983E00
950,77	-6,7468E00
951,06	-6,6868E00
951,36	-7,9024E00
951,65	-8,3673E00
951,95	-5,7367E00
952,24	-9,0433E00
952,54	-6,4791E00
952,83	-6,8182E00
953,13	-6,2138E00
953,42	-6,1491E00
953,71	-8,1192E00
954,01	-7,5890E00
954,30	-6,3071E00
954,60	-5,7066E00
954,89	-8,3088E00
955,18	-8,5305E00
955,48	-5,5386E00
955,77	-5,8258E00
956,07	-6,4599E00
956,36	-5,8588E00
956,65	-9,4026E00
956,95	-7,7643E00
957,24	-4,5868E00
957,53	-7,4520E00
957,83	-4,5416E00
958,12	-7,9097E00
958,41	-5,8256E00
958,71	-6,4717E00
959,00	-5,7815E00
959,29	-7,2776E00
959,59	-5,4550E00
959,88	-8,1694E00
960,17	-8,9002E00
960,46	-8,4965E00
960,76	-6,6610E00
961,05	-5,9559E00
961,34	-5,1162E00
961,64	-8,6045E00
961,93	-9,3601E00
962,22	-7,3497E00
962,51	-6,1371E00
962,81	-7,5518E00
963,10	-5,6670E00
963,39	-7,0228E00
963,68	-7,4161E00
963,97	-7,7375E00
964,27	-6,8001E00
964,56	-7,7262E00
964,85	-9,1888E00
965,14	-7,1050E00
965,43	-8,0509E00
965,73	-1,0536E01
966,02	-8,8175E00
966,31	-5,9311E00
966,60	-5,8031E00
966,89	-9,7288E00
967,19	-8,2924E00
967,48	-1,0065E01
967,77	-1,0671E01
968,06	-8,1042E00
968,35	-1,0154E01
968,64	-4,5790E00
968,93	-1,1458E01
969,22	-7,8708E00
969,52	-7,4208E00
969,81	-7,0568E00
970,10	-1,0235E01
970,39	-1,0222E01
970,68	-8,5307E00
970,97	-8,4923E00
971,26	-1,0150E01
971,55	-9,7839E00
971,84	-9,1610E00
972,13	-9,1403E00
972,42	-6,5963E00
972,71	-1,0138E01
973,01	-1,1160E01
973,30	-7,5121E00
973,59	-6,5813E00
973,88	-7,5239E00
974,17	-7,4852E00
974,46	-9,3489E00
974,75	-8,3277E00
975,04	-1,2161E01
975,33	-8,7132E00
975,62	-1,1835E01
975,91	-9,8400E00
976,20	-1,0564E01
976,49	-9,5840E00
976,78	-8,2956E00
977,07	-8,7203E00
977,36	-1,1578E01
977,64	-9,5260E00
977,93	-6,0562E00
978,22	-6,5841E00
978,51	-7,9159E00
978,80	-1,1471E01
979,09	-1,2265E01
979,38	-1,1451E01
979,67	-1,2768E01
979,96	-1,0929E01
980,25	-1,2987E01
980,54	-1,1403E01
980,83	-1,3377E01
981,12	-1,1149E01
981,40	-1,4795E01
981,69	-5,4015E00
981,98	-1,2631E01
982,27	-1,2295E01
982,56	-1,1612E01
982,85	-9,1376E00
983,14	-8,2998E00
983,42	-1,2321E01
983,71	-1,1276E01
984,00	-1,1941E01
984,29	-1,1681E01
984,58	-1,4771E01
984,87	-1,2070E01
985,15	-1,1690E01
985,44	-1,1776E01
985,73	-1,1634E01
986,02	-1,4986E01
986,31	-1,1218E01
986,59	-1,5135E01
986,88	-1,1543E01
987,17	-1,5511E01
987,46	-1,6129E01
987,74	-1,3870E01
988,03	-1,5771E01
988,32	-2,8811E01
988,61	-1,4721E01
988,89	-1,0892E01
989,18	-1,3478E01
989,47	-1,1327E01
989,76	-1,3152E01
990,04	-1,7713E01
990,33	-1,6489E01
990,62	-1,5801E01
990,90	-1,3026E01
991,19	-1,7484E01
991,48	-1,0147E01
991,76	-1,6906E01
992,05	-1,0171E01
992,34	-1,1150E01
992,62	-1,4006E01
992,91	-9,4156E00
993,20	-1,4257E01
993,48	-1,4527E01
993,77	-9,6730E00
994,06	-1,5841E01
994,34	-1,6585E01
994,63	-1,7202E01
994,92	-1,6714E01
995,20	-1,7515E01
995,49	-1,8288E01
995,77	-1,2522E01
996,06	-1,5239E01
996,35	-2,2062E01
996,63	-1,4683E01
996,92	-1,9973E01
997,20	-2,0666E01
997,49	-1,5257E01
997,77	-2,8746E01
998,06	-1,9001E01
998,34	-1,5147E01
998,63	-1,4397E01
998,92	-2,0909E01
999,20	-2,1602E01
999,49	-2,4327E01
999,77	-1,5271E01
1000,06	-2,3893E01
1000,34	-1,7787E01
1000,63	-2,0573E01
1000,91	-1,5113E01
1001,20	-2,4237E01
1001,48	-2,3127E01
1001,77	-2,0060E01
1002,05	-1,5140E01
1002,34	-2,0865E01
1002,62	-3,0271E01
1002,90	-2,0250E01
1003,19	-1,9402E01
1003,47	-2,1659E01
1003,76	-1,5213E01
1004,04	-2,1478E01
1004,33	-2,3150E01
1004,61	-1,8448E01
1004,89	-1,1486E01
1005,18	-2,0355E01
1005,46	-2,7167E01
1005,75	-3,2143E01
1006,03	-3,0200E01
1006,31	-2,7304E01
1006,60	-2,4319E01
1006,88	-2,6188E01
1007,17	-2,5705E01
1007,45	-2,8826E01
1007,73	-1,5040E01
1008,02	-2,4092E01
1008,30	-2,3321E01
1008,58	-3,1930E01
1008,87	-2,8042E01
1009,15	-3,3552E01
1009,43	-3,3372E01
1009,72	-2,3305E01
1010,00	-2,5856E01
1010,28	-3,2468E01
1010,57	-2,0353E01
1010,85	-2,6674E01
1011,13	-2,8305E01
1011,41	-2,9446E01
1011,70	-2,8662E01
1011,98	-2,4494E01
1012,26	-2,8972E01
1012,55	-2,4486E01
1012,83	-3,0470E01
1013,11	-1,7727E01
1013,39	-2,5502E01
1013,68	-4,1207E01
1013,96	-2,4593E01
1014,24	-2,7593E01
1014,52	-2,9387E01
1014,80	-3,1242E01
1015,09	-2,7236E01
1015,37	-3,2324E01
1015,65	-4,0970E01
1015,93	-3,5701E01
1016,21	-3,5498E01
1016,50	-4,6223E01
1016,78	-4,6409E01
1017,06	-2,0063E01
1017,34	-3,2715E01
1017,62	-4,2260E01
1017,90	-4,7037E01
1018,19	-2,7869E01
1018,47	-4,0168E01
1018,75	-2,7083E01
1019,03	-3,8100E01
1019,31	-4,8953E01
1019,59	-4,6142E01
1019,87	-2,6397E01
1020,15	-4,5612E01
1020,44	-5,1156E01
1020,72	-4,8912E01
1021,00	-3,2301E01
1021,28	-3,9167E01
1021,56	-3,7106E01
1021,84	-5,1587E01
1022,12	-3,0032E01
1022,40	-4,4715E01
1022,68	-2,0890E01
1022,96	-3,5251E01
1023,24	-6,7838E01
1023,52	-5,3825E01
1023,80	-5,3854E01
1024,08	-5,3854E01
>>>>>End Processed Spectral Data<<<<<
