SpectraSuite Datei
++++++++++++++++++++++++++++++++++++
Datum: Thu Jan 20 12:01:57 CET 2022
Benutzer: RMV
Dark-Spektrum vorhanden: Ja
Referenz-Spektrum vorhanden: Nein
Zahl der probierten Teilspektren: 1
Spektrometer: USB2+H07983
Integrationszeit (usec): 3170 (USB2+H07983)
Spektren Durchschnitt berechnet: 1 (USB2+H07983)
Boxcar Glättung: 0 (USB2+H07983)
Dunkelstromkorrektur: Nein (USB2+H07983)
Puls/Lampe aktiviert: Nein (USB2+H07983)
Correct for Detector Non-linearity: Nein (USB2+H07983)
Streulichtkorrektur: Nein (USB2+H07983)
Anzahl Pixel in verarbeitetem Spektrum: 2048
>>>>>Begin Processed Spectral Data<<<<<
339,47	-0,0000E00
339,85	-0,0000E00
340,24	-0,0000E00
340,62	-0,0000E00
341,01	-0,0000E00
341,39	-0,0000E00
341,77	-0,0000E00
342,16	-0,0000E00
342,54	-0,0000E00
342,92	-0,0000E00
343,31	-0,0000E00
343,69	-0,0000E00
344,07	-0,0000E00
344,46	-0,0000E00
344,84	-0,0000E00
345,22	-0,0000E00
345,61	-0,0000E00
345,99	-0,0000E00
346,37	-0,0000E00
346,76	-0,0000E00
347,14	-0,0000E00
347,52	-0,0000E00
347,91	-0,0000E00
348,29	-0,0000E00
348,67	-4,4676E00
349,05	-5,0301E00
349,44	-4,6979E00
349,82	-4,7145E00
350,20	-4,1303E00
350,59	-4,2755E00
350,97	-4,2596E00
351,35	-4,5293E00
351,73	-3,7878E00
352,12	-3,5649E00
352,50	-4,4688E00
352,88	-4,0214E00
353,26	-3,9267E00
353,65	-3,6467E00
354,03	-3,4340E00
354,41	-3,9101E00
354,79	-3,3472E00
355,17	-3,0299E00
355,56	-3,9012E00
355,94	-3,2821E00
356,32	-3,7986E00
356,70	-3,3667E00
357,08	-3,4144E00
357,47	-3,8434E00
357,85	-4,2602E00
358,23	-3,5085E00
358,61	-4,5564E00
358,99	-4,5553E00
359,38	-3,3102E00
359,76	-4,0683E00
360,14	-5,2554E00
360,52	-4,6731E00
360,90	-3,1782E00
361,28	-3,6198E00
361,66	-3,9208E00
362,05	-3,4838E00
362,43	-3,3510E00
362,81	-4,5593E00
363,19	-4,0118E00
363,57	-4,0929E00
363,95	-3,3278E00
364,33	-3,8767E00
364,71	-4,0179E00
365,10	-3,5820E00
365,48	-5,4795E00
365,86	-5,2697E00
366,24	-4,0885E00
366,62	-3,2402E00
367,00	-3,2074E00
367,38	-2,4736E00
367,76	-3,8319E00
368,14	-3,9322E00
368,52	-3,2717E00
368,90	-3,7913E00
369,28	-3,8579E00
369,66	-3,2941E00
370,04	-3,9334E00
370,42	-4,4164E00
370,81	-3,7877E00
371,19	-4,2647E00
371,57	-4,7959E00
371,95	-4,0548E00
372,33	-4,0211E00
372,71	-4,4705E00
373,09	-5,2314E00
373,47	-3,4117E00
373,85	-3,6906E00
374,23	-3,9120E00
374,61	-4,1243E00
374,99	-3,4960E00
375,37	-2,5665E00
375,75	-3,0093E00
376,13	-3,2290E00
376,51	-3,1118E00
376,88	-4,0690E00
377,26	-3,4037E00
377,64	-2,9809E00
378,02	-3,1493E00
378,40	-3,4761E00
378,78	-3,8467E00
379,16	-3,7399E00
379,54	-3,0973E00
379,92	-3,4932E00
380,30	-2,6730E00
380,68	-3,8074E00
381,06	-3,3775E00
381,44	-3,0127E00
381,82	-2,7997E00
382,20	-2,5846E00
382,57	-2,7394E00
382,95	-3,3645E00
383,33	-2,9948E00
383,71	-3,7274E00
384,09	-3,7265E00
384,47	-3,1217E00
384,85	-2,9009E00
385,23	-3,0419E00
385,60	-2,0937E00
385,98	-1,9902E00
386,36	-2,4185E00
386,74	-3,3369E00
387,12	-2,6257E00
387,50	-2,5064E00
387,88	-3,3045E00
388,25	-2,4446E00
388,63	-2,2421E00
389,01	-2,2733E00
389,39	-3,1405E00
389,77	-2,9479E00
390,14	-3,4081E00
390,52	-2,2322E00
390,90	-2,1749E00
391,28	-2,6333E00
391,66	-2,8396E00
392,03	-2,6430E00
392,41	-2,1453E00
392,79	-1,9044E00
393,17	-1,8353E00
393,54	-3,0038E00
393,92	-2,9631E00
394,30	-2,5963E00
394,68	-2,2904E00
395,06	-2,3831E00
395,43	-2,4767E00
395,81	-2,7770E00
396,19	-2,6830E00
396,56	-2,5299E00
396,94	-1,7880E00
397,32	-2,8711E00
397,70	-2,4719E00
398,07	-2,3080E00
398,45	-2,0318E00
398,83	-1,9024E00
399,20	-1,5845E00
399,58	-2,0224E00
399,96	-2,2661E00
400,34	-2,1226E00
400,71	-2,1953E00
401,09	-2,5489E00
401,47	-2,6031E00
401,84	-2,2114E00
402,22	-2,3731E00
402,60	-2,1331E00
402,97	-2,1678E00
403,35	-1,9997E00
403,73	-1,9868E00
404,10	-2,7506E00
404,48	-2,2573E00
404,85	-2,0704E00
405,23	-1,7602E00
405,61	-2,5400E00
405,98	-2,6980E00
406,36	-2,0009E00
406,74	-2,4384E00
407,11	-1,4375E00
407,49	-1,7344E00
407,86	-2,3106E00
408,24	-1,4950E00
408,62	-2,0973E00
408,99	-1,9172E00
409,37	-2,3907E00
409,74	-1,8273E00
410,12	-1,7153E00
410,49	-1,6622E00
410,87	-2,3373E00
411,25	-1,6779E00
411,62	-1,8912E00
412,00	-1,7355E00
412,37	-1,3614E00
412,75	-2,2342E00
413,12	-1,7794E00
413,50	-2,2361E00
413,87	-1,9085E00
414,25	-1,8778E00
414,62	-1,5454E00
415,00	-2,1124E00
415,37	-1,2194E00
415,75	-1,6869E00
416,12	-1,5271E00
416,50	-1,7729E00
416,87	-9,4758E-01
417,25	-1,1315E00
417,62	-2,1238E00
418,00	-1,2041E00
418,37	-1,7803E00
418,75	-1,6660E00
419,12	-1,9854E00
419,50	-1,3403E00
419,87	-1,4387E00
420,25	-1,2266E00
420,62	-1,2350E00
420,99	-1,7656E00
421,37	-1,0530E00
421,74	-1,4376E00
422,12	-3,2041E00
422,49	-9,0892E-01
422,87	-8,8044E-01
423,24	-7,7890E-01
423,61	-3,5722E-01
423,99	-6,7454E-01
424,36	-7,2081E-01
424,74	-2,8029E-01
425,11	-2,9201E-01
425,48	-3,7659E-01
425,86	-2,7827E-01
426,23	-2,8966E-01
426,60	-3,1259E-01
426,98	4,5498E-01
427,35	1,0730E-01
427,73	4,7458E-02
428,10	4,2626E-01
428,47	1,0037E00
428,85	8,5903E-01
429,22	9,8450E-01
429,59	1,4030E00
429,97	1,3289E00
430,34	1,1502E00
430,71	1,9797E00
431,09	2,0653E00
431,46	2,6123E00
431,83	2,5899E00
432,21	2,6869E00
432,58	3,7647E00
432,95	3,5619E00
433,32	3,5282E00
433,70	4,5797E00
434,07	4,3916E00
434,44	5,1654E00
434,82	6,0249E00
435,19	6,1022E00
435,56	6,2558E00
435,93	6,9703E00
436,31	7,3335E00
436,68	8,1362E00
437,05	8,3992E00
437,42	8,8272E00
437,80	1,0926E01
438,17	1,0367E01
438,54	1,2201E01
438,91	1,2447E01
439,28	1,3873E01
439,66	1,4594E01
440,03	1,5517E01
440,40	1,7309E01
440,77	1,8225E01
441,14	1,8932E01
441,52	2,1637E01
441,89	2,1585E01
442,26	2,3876E01
442,63	2,3849E01
443,00	2,6461E01
443,38	2,8248E01
443,75	2,8919E01
444,12	3,1213E01
444,49	3,2966E01
444,86	3,4552E01
445,23	3,6642E01
445,60	3,9782E01
445,98	4,1546E01
446,35	4,4168E01
446,72	4,5514E01
447,09	4,8793E01
447,46	5,2259E01
447,83	5,4170E01
448,20	5,8496E01
448,57	6,2493E01
448,94	6,6965E01
449,32	7,0196E01
449,69	7,5031E01
450,06	7,8936E01
450,43	8,2046E01
450,80	8,9508E01
451,17	9,2957E01
451,54	9,8770E01
451,91	1,0426E02
452,28	1,0981E02
452,65	1,1815E02
453,02	1,2517E02
453,39	1,3380E02
453,76	1,3866E02
454,13	1,4775E02
454,50	1,5511E02
454,87	1,6264E02
455,24	1,7090E02
455,61	1,7906E02
455,98	1,8675E02
456,35	1,9330E02
456,72	1,9963E02
457,09	2,0461E02
457,46	2,1084E02
457,83	2,1586E02
458,20	2,2046E02
458,57	2,2300E02
458,94	2,2525E02
459,31	2,2727E02
459,68	2,3134E02
460,05	2,3153E02
460,42	2,3345E02
460,79	2,3318E02
461,16	2,3516E02
461,53	2,3628E02
461,90	2,3694E02
462,27	2,3760E02
462,64	2,3688E02
463,01	2,3676E02
463,38	2,3652E02
463,75	2,3395E02
464,12	2,3349E02
464,48	2,3189E02
464,85	2,3036E02
465,22	2,2860E02
465,59	2,2792E02
465,96	2,2529E02
466,33	2,2410E02
466,70	2,2104E02
467,07	2,1913E02
467,44	2,1645E02
467,80	2,1433E02
468,17	2,0989E02
468,54	2,0605E02
468,91	2,0131E02
469,28	2,0002E02
469,65	1,9635E02
470,02	1,9388E02
470,38	1,9025E02
470,75	1,8555E02
471,12	1,8167E02
471,49	1,7719E02
471,86	1,7395E02
472,22	1,7076E02
472,59	1,6745E02
472,96	1,6328E02
473,33	1,5925E02
473,70	1,5492E02
474,06	1,5164E02
474,43	1,4794E02
474,80	1,4408E02
475,17	1,4042E02
475,54	1,3805E02
475,90	1,3485E02
476,27	1,3043E02
476,64	1,2855E02
477,01	1,2593E02
477,37	1,2181E02
477,74	1,1822E02
478,11	1,1460E02
478,48	1,1073E02
478,84	1,0928E02
479,21	1,0476E02
479,58	1,0350E02
479,94	9,9638E01
480,31	9,7409E01
480,68	9,2833E01
481,05	9,0988E01
481,41	8,8989E01
481,78	8,5415E01
482,15	8,2256E01
482,51	7,9041E01
482,88	7,6144E01
483,25	7,3029E01
483,61	7,0486E01
483,98	6,9452E01
484,35	6,4467E01
484,71	6,2770E01
485,08	5,9482E01
485,45	5,7631E01
485,81	5,5173E01
486,18	5,2716E01
486,54	5,0321E01
486,91	4,8577E01
487,28	4,6387E01
487,64	4,4520E01
488,01	4,2953E01
488,38	4,0141E01
488,74	3,9629E01
489,11	3,8006E01
489,47	3,6184E01
489,84	3,4684E01
490,20	3,3292E01
490,57	3,1376E01
490,94	3,0142E01
491,30	2,9286E01
491,67	2,8186E01
492,03	2,6642E01
492,40	2,5516E01
492,76	2,4922E01
493,13	2,3561E01
493,50	2,2888E01
493,86	2,1960E01
494,23	2,1519E01
494,59	2,0674E01
494,96	1,9619E01
495,32	1,9200E01
495,69	1,8296E01
496,05	1,7637E01
496,42	1,6934E01
496,78	1,6534E01
497,15	1,5713E01
497,51	1,5407E01
497,88	1,4598E01
498,24	1,4397E01
498,61	1,3982E01
498,97	1,3242E01
499,34	1,2696E01
499,70	1,2444E01
500,06	1,1842E01
500,43	1,1516E01
500,79	1,0924E01
501,16	1,0596E01
501,52	1,0414E01
501,89	1,0000E01
502,25	9,4222E00
502,62	9,0653E00
502,98	8,8592E00
503,34	8,5584E00
503,71	7,9836E00
504,07	7,5007E00
504,44	7,3175E00
504,80	7,1782E00
505,16	6,8378E00
505,53	6,3880E00
505,89	6,0874E00
506,26	5,8696E00
506,62	5,7714E00
506,98	5,2988E00
507,35	5,2185E00
507,71	5,2178E00
508,07	4,5289E00
508,44	4,5802E00
508,80	4,4204E00
509,16	4,4170E00
509,53	4,1788E00
509,89	3,9880E00
510,25	3,7995E00
510,62	3,7518E00
510,98	3,5221E00
511,34	3,2804E00
511,71	2,8920E00
512,07	3,1446E00
512,43	3,0485E00
512,80	2,7274E00
513,16	2,5481E00
513,52	2,5916E00
513,88	2,4632E00
514,25	2,3631E00
514,61	2,2491E00
514,97	2,1028E00
515,33	2,3187E00
515,70	2,0166E00
516,06	1,8795E00
516,42	1,9082E00
516,78	1,8098E00
517,15	1,5571E00
517,51	1,4011E00
517,87	1,5020E00
518,23	1,4521E00
518,60	1,4488E00
518,96	1,4563E00
519,32	1,3161E00
519,68	1,3210E00
520,04	1,3787E00
520,41	1,1727E00
520,77	9,3865E-01
521,13	1,0727E00
521,49	9,5793E-01
521,85	7,9931E-01
522,22	7,3051E-01
522,58	8,7186E-01
522,94	7,4535E-01
523,30	7,6690E-01
523,66	6,2595E-01
524,02	6,6225E-01
524,38	7,6375E-01
524,75	7,0946E-01
525,11	6,7332E-01
525,47	4,7060E-01
525,83	6,0797E-01
526,19	4,4495E-01
526,55	4,2321E-01
526,91	2,6770E-01
527,27	4,2339E-01
527,64	3,2898E-01
528,00	4,1204E-01
528,36	3,6499E-01
528,72	2,3489E-01
529,08	2,2036E-01
529,44	4,3322E-02
529,80	1,8413E-01
530,16	2,5995E-01
530,52	4,6912E-02
530,88	-3,6065E-02
531,24	2,0907E-01
531,60	9,3712E-02
531,96	-5,0434E-02
532,32	-1,1164E-01
532,68	1,5476E-01
533,04	4,3166E-02
533,40	2,1581E-02
533,77	-5,7487E-02
534,13	-1,7953E-02
534,49	-8,9724E-02
534,85	-3,5885E-02
535,21	-7,8876E-02
535,57	-9,3138E-02
535,93	-1,0735E-01
536,29	-1,3586E-01
536,65	2,8580E-02
537,00	-1,3567E-01
537,36	-7,4906E-02
537,72	-1,4619E-01
538,08	-1,5316E-01
538,44	-1,0676E-01
538,80	-1,4578E-01
539,16	-2,3818E-01
539,52	-1,8832E-01
539,88	-2,4515E-01
540,24	-1,0656E-01
540,60	-2,3439E-01
540,96	-2,4850E-01
541,32	-1,8455E-01
541,68	-2,2003E-01
542,04	-2,2008E-01
542,40	-1,8456E-01
542,75	-3,5484E-01
543,11	-3,7598E-01
543,47	-2,3412E-01
543,83	-2,2355E-01
544,19	-2,1642E-01
544,55	-2,7677E-01
544,91	-2,5907E-01
545,27	-2,6974E-01
545,63	-2,5902E-01
545,98	-3,1241E-01
546,34	-3,5877E-01
546,70	-3,2341E-01
547,06	-2,6669E-01
547,42	-3,6997E-01
547,78	-2,0638E-01
548,13	-2,9554E-01
548,49	-2,2792E-01
548,85	-3,7055E-01
549,21	-4,1718E-01
549,57	-2,6769E-01
549,93	-2,9994E-01
550,28	-4,4311E-01
550,64	-3,2177E-01
551,00	-2,8619E-01
551,36	-4,6914E-01
551,71	-4,8739E-01
552,07	-4,5904E-01
552,43	-2,4045E-01
552,79	-3,1971E-01
553,15	-3,8111E-01
553,50	-3,8134E-01
553,86	-3,9967E-01
554,22	-4,5398E-01
554,58	-4,4710E-01
554,93	-4,1155E-01
555,29	-4,2638E-01
555,65	-4,0519E-01
556,01	-3,6935E-01
556,36	-3,9888E-01
556,72	-4,0653E-01
557,08	-3,7062E-01
557,43	-3,2744E-01
557,79	-5,3183E-01
558,15	-4,3026E-01
558,50	-3,7259E-01
558,86	-2,9614E-01
559,22	-2,9649E-01
559,58	-3,8110E-01
559,93	-6,0190E-01
560,29	-3,5657E-01
560,65	-4,0125E-01
561,00	-5,1989E-01
561,36	-5,2810E-01
561,71	-5,9934E-01
562,07	-4,3007E-01
562,43	-3,7900E-01
562,78	-3,9852E-01
563,14	-4,2560E-01
563,50	-3,2927E-01
563,85	-5,0987E-01
564,21	-5,3705E-01
564,57	-3,0499E-01
564,92	-5,3975E-01
565,28	-4,1986E-01
565,63	-4,8137E-01
565,99	-3,7974E-01
566,35	-4,6039E-01
566,70	-4,6870E-01
567,06	-4,5426E-01
567,41	-4,4735E-01
567,77	-4,2153E-01
568,12	-3,9940E-01
568,48	-5,1155E-01
568,83	-5,2394E-01
569,19	-5,8674E-01
569,55	-4,4478E-01
569,90	-4,3803E-01
570,26	-4,3089E-01
570,61	-6,1866E-01
570,97	-5,4566E-01
571,32	-6,3668E-01
571,68	-5,3623E-01
572,03	-5,9994E-01
572,39	-4,8325E-01
572,74	-6,7718E-01
573,10	-5,7591E-01
573,45	-5,4939E-01
573,81	-2,7712E-01
574,16	-4,9193E-01
574,52	-6,2780E-01
574,87	-4,2600E-01
575,23	-5,2265E-01
575,58	-4,9155E-01
575,94	-4,4843E-01
576,29	-4,4531E-01
576,64	-4,9032E-01
577,00	-5,3548E-01
577,35	-5,4475E-01
577,71	-5,4189E-01
578,06	-5,6727E-01
578,42	-5,6861E-01
578,77	-6,5118E-01
579,12	-6,1571E-01
579,48	-5,5976E-01
579,83	-4,3805E-01
580,19	-4,8397E-01
580,54	-5,3843E-01
580,89	-4,9434E-01
581,25	-6,1465E-01
581,60	-4,8768E-01
581,96	-5,3826E-01
582,31	-6,0545E-01
582,66	-5,1926E-01
583,02	-5,8679E-01
583,37	-5,6276E-01
583,72	-5,5994E-01
584,08	-5,4841E-01
584,43	-4,4453E-01
584,78	-4,9990E-01
585,14	-6,6089E-01
585,49	-4,7654E-01
585,84	-5,2828E-01
586,20	-6,9043E-01
586,55	-5,9859E-01
586,90	-6,0826E-01
587,26	-6,4353E-01
587,61	-4,3560E-01
587,96	-6,2488E-01
588,32	-5,2317E-01
588,67	-5,1132E-01
589,02	-4,8653E-01
589,37	-5,8234E-01
589,73	-5,0987E-01
590,08	-6,3207E-01
590,43	-5,7261E-01
590,78	-4,3029E-01
591,14	-3,7009E-01
591,49	-6,1905E-01
591,84	-5,4161E-01
592,19	-6,3020E-01
592,55	-7,1022E-01
592,90	-7,0232E-01
593,25	-7,3444E-01
593,60	-6,2102E-01
593,96	-7,7178E-01
594,31	-5,0343E-01
594,66	-6,9875E-01
595,01	-5,9360E-01
595,36	-5,5888E-01
595,72	-5,9068E-01
596,07	-5,0676E-01
596,42	-5,6970E-01
596,77	-6,1521E-01
597,12	-7,5455E-01
597,47	-5,3219E-01
597,83	-6,1803E-01
598,18	-8,0675E-01
598,53	-5,9668E-01
598,88	-5,6595E-01
599,23	-7,4210E-01
599,58	-4,4578E-01
599,93	-6,6726E-01
600,29	-5,4169E-01
600,64	-4,5641E-01
600,99	-7,2807E-01
601,34	-5,8849E-01
601,69	-6,7042E-01
602,04	-5,3113E-01
602,39	-5,8622E-01
602,74	-7,6015E-01
603,09	-6,0165E-01
603,44	-2,9668E-01
603,80	-5,9873E-01
604,15	-6,6354E-01
604,50	-5,2241E-01
604,85	-4,8202E-01
605,20	-5,6117E-01
605,55	-5,8058E-01
605,90	-9,0397E-01
606,25	-5,5909E-01
606,60	-6,0162E-01
606,95	-6,6748E-01
607,30	-7,1487E-01
607,65	-7,0225E-01
608,00	-6,0097E-01
608,35	-8,2625E-01
608,70	-6,8261E-01
609,05	-7,0238E-01
609,40	-5,6782E-01
609,75	-5,2188E-01
610,10	-5,9859E-01
610,45	-7,6027E-01
610,80	-7,1448E-01
611,15	-6,4459E-01
611,50	-5,7485E-01
611,85	-6,7610E-01
612,20	-6,7752E-01
612,55	-9,7560E-01
612,90	-7,6202E-01
613,25	-8,5966E-01
613,60	-6,9318E-01
613,95	-5,8868E-01
614,30	-3,6286E-01
614,64	-6,6935E-01
614,99	-8,3165E-01
615,34	-7,9477E-01
615,69	-7,1838E-01
616,04	-7,4010E-01
616,39	-6,8301E-01
616,74	-7,2415E-01
617,09	-6,0257E-01
617,44	-7,3282E-01
617,79	-8,0381E-01
618,13	-4,8249E-01
618,48	-7,3810E-01
618,83	-9,2551E-01
619,18	-8,9258E-01
619,53	-8,0453E-01
619,88	-6,9049E-01
620,23	-8,3901E-01
620,57	-7,0938E-01
620,92	-6,3500E-01
621,27	-8,3570E-01
621,62	-5,8243E-01
621,97	-6,5044E-01
622,32	-8,5788E-01
622,66	-8,6497E-01
623,01	-6,0407E-01
623,36	-8,7514E-01
623,71	-5,4517E-01
624,06	-5,9862E-01
624,40	-7,0997E-01
624,75	-7,1198E-01
625,10	-6,9807E-01
625,45	-8,9498E-01
625,80	-6,3848E-01
626,14	-6,8249E-01
626,49	-7,1638E-01
626,84	-7,1834E-01
627,19	-5,6028E-01
627,53	-9,4713E-01
627,88	-5,9561E-01
628,23	-9,1451E-01
628,57	-6,0971E-01
628,92	-7,9513E-01
629,27	-8,6761E-01
629,62	-8,9223E-01
629,96	-8,8326E-01
630,31	-9,2409E-01
630,66	-8,2763E-01
631,00	-8,6272E-01
631,35	-9,4750E-01
631,70	-6,6859E-01
632,05	-6,2610E-01
632,39	-7,5017E-01
632,74	-1,1311E00
633,09	-7,9922E-01
633,43	-7,1735E-01
633,78	-7,8687E-01
634,12	-7,8326E-01
634,47	-9,8927E-01
634,82	-8,2198E-01
635,16	-9,7775E-01
635,51	-5,8695E-01
635,86	-7,9444E-01
636,20	-9,1670E-01
636,55	-8,5023E-01
636,90	-7,9476E-01
637,24	-7,3360E-01
637,59	-7,7031E-01
637,93	-9,4078E-01
638,28	-8,3238E-01
638,63	-7,7627E-01
638,97	-8,9550E-01
639,32	-1,1797E00
639,66	-8,8272E-01
640,01	-6,1370E-01
640,35	-8,5825E-01
640,70	-8,6038E-01
641,04	-6,9586E-01
641,39	-8,2909E-01
641,74	-1,0822E00
642,08	-1,0073E00
642,43	-7,6947E-01
642,77	-8,7985E-01
643,12	-7,4903E-01
643,46	-7,4483E-01
643,81	-1,0984E00
644,15	-7,4820E-01
644,50	-9,3914E-01
644,84	-7,3345E-01
645,19	-9,6839E-01
645,53	-8,6033E-01
645,88	-7,8860E-01
646,22	-8,8295E-01
646,57	-9,6576E-01
646,91	-8,9368E-01
647,26	-9,5134E-01
647,60	-7,7938E-01
647,94	-1,0001E00
648,29	-1,1781E00
648,63	-8,5433E-01
648,98	-9,0641E-01
649,32	-7,1940E-01
649,67	-9,6785E-01
650,01	-8,8773E-01
650,36	-7,3731E-01
650,70	-9,8775E-01
651,04	-1,0994E00
651,39	-7,8159E-01
651,73	-9,5692E-01
652,08	-7,0184E-01
652,42	-9,3574E-01
652,76	-9,9652E-01
653,11	-1,1676E00
653,45	-1,2679E00
653,79	-1,0170E00
654,14	-1,0456E00
654,48	-9,9534E-01
654,83	-7,8765E-01
655,17	-1,2960E00
655,51	-9,9558E-01
655,86	-9,6486E-01
656,20	-1,2653E00
656,54	-9,9584E-01
656,89	-1,0248E00
657,23	-7,4709E-01
657,57	-1,0031E00
657,91	-1,1193E00
658,26	-9,2729E-01
658,60	-1,0979E00
658,94	-9,7898E-01
659,29	-1,1303E00
659,63	-1,0513E00
659,97	-9,4545E-01
660,32	-1,0565E00
660,66	-8,7420E-01
661,00	-1,2736E00
661,34	-1,0364E00
661,69	-7,0170E-01
662,03	-9,1743E-01
662,37	-9,3341E-01
662,71	-8,5977E-01
663,06	-1,2021E00
663,40	-9,5449E-01
663,74	-1,1730E00
664,08	-9,0342E-01
664,42	-1,1872E00
664,77	-1,0069E00
665,11	-1,1153E00
665,45	-8,4235E-01
665,79	-1,0503E00
666,13	-1,0813E00
666,48	-8,5578E-01
666,82	-8,7246E-01
667,16	-1,0757E00
667,50	-1,0282E00
667,84	-1,4706E00
668,18	-9,3202E-01
668,53	-7,9674E-01
668,87	-8,8611E-01
669,21	-1,1362E00
669,55	-1,3214E00
669,89	-1,2598E00
670,23	-9,9151E-01
670,57	-9,5776E-01
670,92	-1,6323E00
671,26	-1,1408E00
671,60	-1,2553E00
671,94	-1,0430E00
672,28	-9,7908E-01
672,62	-9,2947E-01
672,96	-1,1571E00
673,30	-1,0629E00
673,64	-1,2468E00
673,98	-1,2201E00
674,33	-9,2709E-01
674,67	-1,2424E00
675,01	-9,3272E-01
675,35	-8,2062E-01
675,69	-1,2154E00
676,03	-1,0799E00
676,37	-1,2069E00
676,71	-6,8293E-01
677,05	-1,0429E00
677,39	-1,0697E00
677,73	-1,1670E00
678,07	-9,1143E-01
678,41	-9,7707E-01
678,75	-1,1217E00
679,09	-1,1803E00
679,43	-1,1598E00
679,77	-1,1398E00
680,11	-1,0472E00
680,45	-1,1226E00
680,79	-1,1901E00
681,13	-1,0968E00
681,47	-1,1648E00
681,81	-1,3868E00
682,15	-1,3260E00
682,49	-1,2166E00
682,83	-1,3348E00
683,17	-1,2486E00
683,51	-1,3672E00
683,84	-1,0655E00
684,18	-1,0854E00
684,52	-9,7240E-01
684,86	-1,3505E00
685,20	-1,3378E00
685,54	-1,1321E00
685,88	-1,2953E00
686,22	-1,3073E00
686,56	-1,1083E00
686,90	-1,0441E00
687,24	-8,1720E-01
687,57	-1,1956E00
687,91	-9,8485E-01
688,25	-1,1511E00
688,59	-1,0858E00
688,93	-1,3396E00
689,27	-1,4128E00
689,61	-1,3044E00
689,94	-1,0377E00
690,28	-1,3382E00
690,62	-1,1135E00
690,96	-1,1964E00
691,30	-1,2438E00
691,64	-1,3097E00
691,97	-1,0027E00
692,31	-1,4593E00
692,65	-1,1868E00
692,99	-1,4500E00
693,33	-1,1394E00
693,66	-1,3138E00
694,00	-1,3803E00
694,34	-1,5112E00
694,68	-1,2789E00
695,01	-1,4827E00
695,35	-1,1584E00
695,69	-1,2255E00
696,03	-1,1185E00
696,36	-1,2962E00
696,70	-1,3090E00
697,04	-1,5351E00
697,38	-1,5022E00
697,71	-1,5904E00
698,05	-1,3428E00
698,39	-1,2067E00
698,72	-1,3696E00
699,06	-1,4861E00
699,40	-1,5376E00
699,74	-1,7698E00
700,07	-1,4619E00
700,41	-1,3044E00
700,75	-1,3750E00
701,08	-1,4269E00
701,42	-1,7671E00
701,76	-1,5128E00
702,09	-1,2763E00
702,43	-1,2706E00
702,77	-1,6446E00
703,10	-1,2395E00
703,44	-1,3901E00
703,77	-1,3550E00
704,11	-1,2606E00
704,45	-1,6199E00
704,78	-1,4363E00
705,12	-1,7685E00
705,46	-1,3546E00
705,79	-1,4077E00
706,13	-1,4014E00
706,46	-1,6256E00
706,80	-1,4290E00
707,14	-1,6342E00
707,47	-1,3352E00
707,81	-1,4907E00
708,14	-1,6167E00
708,48	-1,7846E00
708,81	-1,3192E00
709,15	-1,7022E00
709,48	-1,1005E00
709,82	-1,4027E00
710,16	-1,0447E00
710,49	-1,4938E00
710,83	-1,5606E00
711,16	-1,5237E00
711,50	-1,8313E00
711,83	-1,4694E00
712,17	-1,4627E00
712,50	-1,2244E00
712,84	-1,4607E00
713,17	-1,5390E00
713,51	-1,5548E00
713,84	-1,5277E00
714,18	-1,6284E00
714,51	-1,7304E00
714,85	-1,7137E00
715,18	-1,7085E00
715,51	-1,2802E00
715,85	-1,6762E00
716,18	-1,8342E00
716,52	-1,6220E00
716,85	-1,7046E00
717,19	-1,8093E00
717,52	-1,6825E00
717,86	-1,6779E00
718,19	-1,7063E00
718,52	-1,3546E00
718,86	-1,3593E00
719,19	-1,4314E00
719,53	-1,6403E00
719,86	-1,5561E00
720,19	-1,6414E00
720,53	-2,2194E00
720,86	-1,8826E00
721,19	-1,4631E00
721,53	-1,3756E00
721,86	-2,0756E00
722,20	-1,5005E00
722,53	-1,9257E00
722,86	-1,8616E00
723,20	-1,8198E00
723,53	-1,7178E00
723,86	-1,7222E00
724,20	-1,7263E00
724,53	-1,4701E00
724,86	-1,6757E00
725,19	-1,9526E00
725,53	-1,2889E00
725,86	-1,6502E00
726,19	-1,7977E00
726,53	-2,1736E00
726,86	-1,6495E00
727,19	-1,1590E00
727,53	-1,7179E00
727,86	-2,1464E00
728,19	-1,4216E00
728,52	-1,7291E00
728,86	-2,0510E00
729,19	-1,5783E00
729,52	-1,9498E00
729,85	-1,5726E00
730,19	-1,5641E00
730,52	-1,4067E00
730,85	-1,8663E00
731,18	-1,8085E00
731,51	-1,3780E00
731,85	-1,8046E00
732,18	-1,6213E00
732,51	-1,3751E00
732,84	-1,9672E00
733,17	-2,0723E00
733,51	-2,2159E00
733,84	-1,8930E00
734,17	-2,0119E00
734,50	-1,9159E00
734,83	-1,7046E00
735,16	-1,8231E00
735,50	-2,3009E00
735,83	-1,7943E00
736,16	-1,9013E00
736,49	-1,5836E00
736,82	-2,0648E00
737,15	-1,8890E00
737,48	-2,0361E00
737,81	-1,6510E00
738,15	-1,7468E00
738,48	-1,7514E00
738,81	-1,9525E00
739,14	-1,9432E00
739,47	-1,4872E00
739,80	-1,8470E00
740,13	-2,3692E00
740,46	-1,8447E00
740,79	-1,7032E00
741,12	-2,0153E00
741,45	-2,0880E00
741,78	-1,8246E00
742,11	-1,9370E00
742,44	-1,7669E00
742,78	-2,2058E00
743,11	-1,9815E00
743,44	-1,6193E00
743,77	-1,8818E00
744,10	-1,8737E00
744,43	-1,9610E00
744,76	-1,7871E00
745,09	-1,8737E00
745,42	-1,7821E00
745,75	-2,1331E00
746,08	-2,0006E00
746,41	-2,0053E00
746,74	-2,2200E00
747,07	-2,3538E00
747,40	-1,8974E00
747,72	-2,0993E00
748,05	-2,1909E00
748,38	-1,8430E00
748,71	-2,5182E00
749,04	-1,7124E00
749,37	-2,2613E00
749,70	-1,7654E00
750,03	-2,2459E00
750,36	-2,8593E00
750,69	-2,2303E00
751,02	-2,1939E00
751,35	-2,5362E00
751,68	-1,9883E00
752,00	-2,6837E00
752,33	-1,9563E00
752,66	-2,4196E00
752,99	-1,9537E00
753,32	-2,4353E00
753,65	-2,2048E00
753,98	-2,3908E00
754,31	-2,4137E00
754,63	-2,5572E00
754,96	-1,9465E00
755,29	-2,4218E00
755,62	-2,1713E00
755,95	-2,1628E00
756,28	-2,0624E00
756,60	-2,5744E00
756,93	-2,5820E00
757,26	-2,6824E00
757,59	-1,8407E00
757,92	-2,0474E00
758,24	-2,3332E00
758,57	-1,9826E00
758,90	-1,9733E00
759,23	-2,5762E00
759,56	-1,8912E00
759,88	-2,2142E00
760,21	-2,5227E00
760,54	-2,9915E00
760,87	-2,0597E00
761,19	-2,9953E00
761,52	-2,6199E00
761,85	-2,6124E00
762,18	-2,5556E00
762,50	-2,1254E00
762,83	-1,7905E00
763,16	-1,6326E00
763,49	-2,4565E00
763,81	-2,6941E00
764,14	-2,2257E00
764,47	-1,9846E00
764,79	-2,1567E00
765,12	-1,8973E00
765,45	-2,9043E00
765,77	-2,0931E00
766,10	-2,2506E00
766,43	-2,7636E00
766,75	-2,8236E00
767,08	-2,0698E00
767,41	-2,0422E00
767,73	-2,8513E00
768,06	-2,4658E00
768,39	-2,4582E00
768,71	-2,3972E00
769,04	-1,9896E00
769,36	-2,8110E00
769,69	-2,5779E00
770,02	-2,4295E00
770,34	-2,4718E00
770,67	-2,2517E00
770,99	-2,3665E00
771,32	-2,6751E00
771,65	-2,6853E00
771,97	-2,7650E00
772,30	-3,4912E00
772,62	-2,4261E00
772,95	-2,1649E00
773,27	-1,5743E00
773,60	-2,4157E00
773,93	-2,8631E00
774,25	-2,6711E00
774,58	-2,5149E00
774,90	-2,8938E00
775,23	-2,6266E00
775,55	-3,3240E00
775,88	-2,9269E00
776,20	-2,9202E00
776,53	-3,1588E00
776,85	-3,2306E00
777,18	-2,4093E00
777,50	-3,2953E00
777,83	-3,1762E00
778,15	-2,4801E00
778,48	-2,7609E00
778,80	-2,9102E00
779,13	-2,9422E00
779,45	-2,8384E00
779,78	-2,2797E00
780,10	-2,3665E00
780,42	-3,3052E00
780,75	-3,0189E00
781,07	-3,3882E00
781,40	-2,8182E00
781,72	-2,8659E00
782,05	-2,5915E00
782,37	-2,1141E00
782,69	-3,8717E00
783,02	-2,7651E00
783,34	-2,2430E00
783,67	-2,6303E00
783,99	-2,8138E00
784,31	-3,0165E00
784,64	-2,9569E00
784,96	-2,8765E00
785,28	-2,9162E00
785,61	-2,8944E00
785,93	-3,3970E00
786,25	-3,3338E00
786,58	-2,9684E00
786,90	-2,6626E00
787,22	-3,3043E00
787,55	-2,6553E00
787,87	-3,3953E00
788,19	-2,5664E00
788,52	-2,3011E00
788,84	-2,6167E00
789,16	-3,0911E00
789,49	-2,8267E00
789,81	-3,3574E00
790,13	-3,2526E00
790,46	-3,0887E00
790,78	-2,9052E00
791,10	-2,5859E00
791,42	-2,8175E00
791,75	-2,9133E00
792,07	-3,2848E00
792,39	-2,5346E00
792,71	-2,0802E00
793,04	-3,0392E00
793,36	-2,6459E00
793,68	-3,7393E00
794,00	-2,8767E00
794,32	-2,0736E00
794,65	-2,5618E00
794,97	-2,9933E00
795,29	-3,0117E00
795,61	-2,5034E00
795,93	-2,6983E00
796,26	-2,6604E00
796,58	-3,3285E00
796,90	-2,6257E00
797,22	-3,1392E00
797,54	-2,5335E00
797,87	-1,8876E00
798,19	-3,0714E00
798,51	-3,2906E00
798,83	-3,1389E00
799,15	-3,5783E00
799,47	-2,9311E00
799,79	-3,0363E00
800,12	-3,4177E00
800,44	-3,3447E00
800,76	-2,6131E00
801,08	-2,8783E00
801,40	-3,5259E00
801,72	-3,6745E00
802,04	-2,6174E00
802,36	-2,9881E00
802,68	-3,1588E00
803,00	-2,3547E00
803,32	-3,1344E00
803,65	-3,7157E00
803,97	-2,9888E00
804,29	-2,7715E00
804,61	-3,5832E00
804,93	-3,9235E00
805,25	-3,0653E00
805,57	-2,2854E00
805,89	-3,5620E00
806,21	-3,1752E00
806,53	-3,2092E00
806,85	-3,8316E00
807,17	-2,8306E00
807,49	-2,7990E00
807,81	-2,3626E00
808,13	-3,0750E00
808,45	-2,7652E00
808,77	-3,8102E00
809,09	-3,7592E00
809,41	-2,6678E00
809,73	-3,3543E00
810,05	-2,6879E00
810,37	-3,0053E00
810,69	-3,0169E00
811,01	-2,9181E00
811,33	-3,6160E00
811,64	-3,4535E00
811,96	-3,8460E00
812,28	-3,3216E00
812,60	-3,4924E00
812,92	-3,5289E00
813,24	-3,0198E00
813,56	-3,8296E00
813,88	-4,0504E00
814,20	-4,2043E00
814,52	-3,4352E00
814,83	-3,4271E00
815,15	-4,4171E00
815,47	-2,4978E00
815,79	-3,7943E00
816,11	-3,4811E00
816,43	-3,8963E00
816,75	-2,8685E00
817,06	-3,4762E00
817,38	-3,1790E00
817,70	-3,8389E00
818,02	-4,1933E00
818,34	-4,5002E00
818,66	-3,2315E00
818,97	-3,4896E00
819,29	-3,9962E00
819,61	-4,4297E00
819,93	-4,2493E00
820,25	-3,1005E00
820,56	-3,7848E00
820,88	-3,7736E00
821,20	-3,6409E00
821,52	-3,6805E00
821,84	-3,0371E00
822,15	-4,0656E00
822,47	-3,6469E00
822,79	-3,7900E00
823,11	-4,2926E00
823,42	-4,3114E00
823,74	-4,1198E00
824,06	-5,4620E00
824,37	-3,4214E00
824,69	-4,1677E00
825,01	-4,3141E00
825,33	-4,3046E00
825,64	-5,0363E00
825,96	-3,5653E00
826,28	-4,4572E00
826,59	-5,1443E00
826,91	-5,5375E00
827,23	-3,8589E00
827,54	-4,8736E00
827,86	-4,3753E00
828,18	-4,0086E00
828,49	-3,9959E00
828,81	-4,3654E00
829,13	-3,5250E00
829,44	-3,5658E00
829,76	-3,4968E00
830,08	-4,0389E00
830,39	-4,2775E00
830,71	-4,0391E00
831,02	-4,9003E00
831,34	-3,9002E00
831,66	-3,7154E00
831,97	-3,9016E00
832,29	-3,9177E00
832,60	-3,7903E00
832,92	-3,9779E00
833,23	-3,7029E00
833,55	-4,9072E00
833,87	-4,7220E00
834,18	-4,8000E00
834,50	-4,3456E00
834,81	-3,8907E00
835,13	-3,8457E00
835,44	-4,5993E00
835,76	-5,2098E00
836,07	-5,3167E00
836,39	-4,4049E00
836,70	-5,2913E00
837,02	-4,7947E00
837,33	-3,3901E00
837,65	-5,1640E00
837,96	-4,2077E00
838,28	-4,4064E00
838,59	-4,8218E00
838,91	-5,2700E00
839,22	-6,1200E00
839,54	-4,5567E00
839,85	-3,8543E00
840,17	-4,7058E00
840,48	-4,0295E00
840,80	-4,0668E00
841,11	-5,7687E00
841,43	-4,7729E00
841,74	-5,3447E00
842,05	-5,8884E00
842,37	-2,4934E00
842,68	-5,5078E00
843,00	-4,2569E00
843,31	-4,8470E00
843,62	-4,3536E00
843,94	-5,7906E00
844,25	-4,6211E00
844,57	-4,4137E00
844,88	-5,2528E00
845,19	-3,9684E00
845,51	-6,3294E00
845,82	-5,0648E00
846,13	-5,2513E00
846,45	-6,1067E00
846,76	-4,8228E00
847,07	-6,3208E00
847,39	-4,4879E00
847,70	-3,9633E00
848,01	-3,9131E00
848,33	-6,7624E00
848,64	-4,1823E00
848,95	-3,8529E00
849,27	-5,3188E00
849,58	-6,7969E00
849,89	-4,9444E00
850,21	-5,7681E00
850,52	-6,3868E00
850,83	-5,3532E00
851,14	-6,2212E00
851,46	-4,6453E00
851,77	-5,5529E00
852,08	-6,3237E00
852,39	-4,2340E00
852,71	-6,6987E00
853,02	-4,3731E00
853,33	-5,5807E00
853,64	-5,3445E00
853,96	-4,4149E00
854,27	-4,9085E00
854,58	-5,8101E00
854,89	-6,3096E00
855,20	-6,2953E00
855,52	-4,8300E00
855,83	-4,4348E00
856,14	-6,6584E00
856,45	-4,6937E00
856,76	-6,1075E00
857,07	-5,8670E00
857,39	-6,6870E00
857,70	-5,6784E00
858,01	-6,7298E00
858,32	-5,8346E00
858,63	-6,3183E00
858,94	-7,2693E00
859,25	-6,1743E00
859,57	-5,9262E00
859,88	-5,0110E00
860,19	-6,2861E00
860,50	-7,6933E00
860,81	-5,8225E00
861,12	-6,4032E00
861,43	-5,3914E00
861,74	-6,4547E00
862,05	-4,3872E00
862,36	-4,2441E00
862,67	-4,7079E00
862,99	-6,3928E00
863,30	-7,6023E00
863,61	-6,8981E00
863,92	-7,1723E00
864,23	-6,8292E00
864,54	-5,9050E00
864,85	-5,7208E00
865,16	-7,4636E00
865,47	-6,8210E00
865,78	-6,8499E00
866,09	-6,3679E00
866,40	-6,6535E00
866,71	-6,1663E00
867,02	-6,1083E00
867,33	-6,9991E00
867,64	-4,4243E00
867,95	-4,5302E00
868,26	-4,2017E00
868,57	-6,2010E00
868,88	-7,3801E00
869,19	-5,6843E00
869,50	-6,1107E00
869,81	-7,8887E00
870,12	-6,7142E00
870,42	-6,3383E00
870,73	-6,5514E00
871,04	-5,5817E00
871,35	-6,7586E00
871,66	-7,3449E00
871,97	-8,2661E00
872,28	-7,6990E00
872,59	-7,7883E00
872,90	-1,0525E01
873,21	-6,0748E00
873,52	-7,5846E00
873,82	-5,8512E00
874,13	-6,2718E00
874,44	-6,1104E00
874,75	-7,8006E00
875,06	-7,8460E00
875,37	-6,7026E00
875,68	-4,9572E00
875,98	-6,8278E00
876,29	-5,4571E00
876,60	-7,2966E00
876,91	-6,4762E00
877,22	-7,0702E00
877,52	-8,7912E00
877,83	-8,1173E00
878,14	-6,9242E00
878,45	-6,6516E00
878,76	-9,1447E00
879,06	-6,8823E00
879,37	-9,6102E00
879,68	-8,6041E00
879,99	-7,8500E00
880,30	-7,3532E00
880,60	-9,5506E00
880,91	-9,7050E00
881,22	-9,3224E00
881,53	-8,4901E00
881,83	-5,8869E00
882,14	-8,3474E00
882,45	-9,5531E00
882,75	-8,9804E00
883,06	-9,3556E00
883,37	-7,9844E00
883,68	-7,5122E00
883,98	-9,8092E00
884,29	-8,5968E00
884,60	-8,4540E00
884,90	-1,0602E01
885,21	-9,0254E00
885,52	-8,5319E00
885,82	-7,9722E00
886,13	-8,1169E00
886,44	-7,9010E00
886,74	-8,7932E00
887,05	-1,0447E01
887,36	-7,7755E00
887,66	-8,9611E00
887,97	-8,6860E00
888,27	-9,3514E00
888,58	-8,5440E00
888,89	-8,2044E00
889,19	-7,1004E00
889,50	-8,6461E00
889,80	-8,3638E00
890,11	-6,7149E00
890,42	-9,7574E00
890,72	-9,9539E00
891,03	-1,0686E01
891,33	-9,0881E00
891,64	-1,0177E01
891,94	-9,5910E00
892,25	-7,3237E00
892,56	-7,0270E00
892,86	-7,5185E00
893,17	-9,1566E00
893,47	-8,8054E00
893,78	-9,9008E00
894,08	-1,0811E01
894,39	-1,0216E01
894,69	-7,3785E00
895,00	-9,5037E00
895,30	-1,0176E01
895,61	-9,3950E00
895,91	-8,8589E00
896,22	-8,6787E00
896,52	-1,1476E01
896,83	-8,0193E00
897,13	-1,0210E01
897,43	-7,5411E00
897,74	-8,8246E00
898,04	-6,5156E00
898,35	-9,3809E00
898,65	-1,1397E01
898,96	-9,5697E00
899,26	-1,0368E01
899,57	-8,6679E00
899,87	-9,8940E00
900,17	-8,0038E00
900,48	-7,9478E00
900,78	-9,1746E00
901,09	-9,0566E00
901,39	-9,8016E00
901,69	-6,6813E00
902,00	-8,1576E00
902,30	-1,0749E01
902,60	-9,9014E00
902,91	-1,0966E01
903,21	-9,3795E00
903,51	-1,0387E01
903,82	-9,2335E00
904,12	-9,0106E00
904,42	-7,2289E00
904,73	-8,9344E00
905,03	-1,1841E01
905,33	-1,0117E01
905,64	-9,2595E00
905,94	-1,0734E01
906,24	-8,7960E00
906,55	-9,3308E00
906,85	-8,0831E00
907,15	-9,0602E00
907,45	-7,8676E00
907,76	-1,0640E01
908,06	-9,4440E00
908,36	-1,0374E01
908,66	-7,6953E00
908,97	-8,4297E00
909,27	-1,1318E01
909,57	-9,3285E00
909,87	-8,1719E00
910,18	-1,1089E01
910,48	-1,2049E01
910,78	-9,3862E00
911,08	-9,6199E00
911,39	-1,0258E01
911,69	-8,8910E00
911,99	-1,1879E01
912,29	-1,0183E01
912,59	-1,2671E01
912,89	-1,1302E01
913,20	-1,0748E01
913,50	-1,0527E01
913,80	-1,2311E01
914,10	-1,1055E01
914,40	-1,2162E01
914,70	-1,2087E01
915,01	-1,2583E01
915,31	-1,0093E01
915,61	-1,2718E01
915,91	-1,2146E01
916,21	-1,0342E01
916,51	-1,2877E01
916,81	-9,9518E00
917,11	-1,0379E01
917,41	-1,2286E01
917,72	-1,1996E01
918,02	-9,5162E00
918,32	-1,1374E01
918,62	-1,1666E01
918,92	-1,0438E01
919,22	-1,1033E01
919,52	-1,5487E01
919,82	-1,4643E01
920,12	-1,0522E01
920,42	-1,0825E01
920,72	-1,1686E01
921,02	-1,2632E01
921,32	-1,1842E01
921,62	-1,2332E01
921,92	-1,3960E01
922,22	-1,6355E01
922,52	-1,2519E01
922,82	-1,4020E01
923,12	-1,3373E01
923,42	-1,2114E01
923,72	-9,6560E00
924,02	-1,1678E01
924,32	-1,5107E01
924,62	-1,0894E01
924,92	-1,4284E01
925,22	-1,2550E01
925,52	-1,0877E01
925,82	-1,3462E01
926,12	-1,1591E01
926,42	-1,3679E01
926,72	-1,2794E01
927,02	-1,6217E01
927,31	-1,4593E01
927,61	-1,3872E01
927,91	-1,5768E01
928,21	-1,3130E01
928,51	-1,7338E01
928,81	-1,3410E01
929,11	-1,5745E01
929,41	-1,4100E01
929,71	-1,5690E01
930,00	-1,5130E01
930,30	-1,3042E01
930,60	-1,3451E01
930,90	-1,4077E01
931,20	-1,8021E01
931,50	-1,6434E01
931,79	-1,7554E01
932,09	-1,6899E01
932,39	-1,6009E01
932,69	-1,5098E01
932,99	-1,6687E01
933,29	-1,7869E01
933,58	-1,7186E01
933,88	-1,7854E01
934,18	-1,6803E01
934,48	-1,8289E01
934,77	-1,6845E01
935,07	-1,4793E01
935,37	-2,0177E01
935,67	-1,8864E01
935,97	-2,1624E01
936,26	-1,9299E01
936,56	-2,0608E01
936,86	-1,8587E01
937,15	-2,4683E01
937,45	-2,0260E01
937,75	-1,7326E01
938,05	-2,1947E01
938,34	-2,2220E01
938,64	-2,6949E01
938,94	-2,0398E01
939,23	-1,6147E01
939,53	-2,1611E01
939,83	-2,0161E01
940,12	-2,5591E01
940,42	-3,7190E01
940,72	-2,9335E01
941,01	-1,9687E01
941,31	-2,0893E01
941,61	-3,3118E01
941,90	-2,2257E01
942,20	-2,9021E01
942,50	-2,8545E01
942,79	-2,5842E01
943,09	-2,6920E01
943,38	-3,1395E01
943,68	-2,9278E01
943,98	-2,4234E01
944,27	-2,7415E01
944,57	-2,2184E01
944,86	-3,1102E01
945,16	-3,4544E01
945,46	-2,8934E01
945,75	-3,2133E01
946,05	-3,3549E01
946,34	-3,3520E01
946,64	-3,1418E01
946,93	-2,3293E01
947,23	-2,9781E01
947,52	-3,0073E01
947,82	-3,0790E01
948,12	-2,9641E01
948,41	-2,4304E01
948,71	-2,9408E01
949,00	-2,8453E01
949,30	-3,4877E01
949,59	-4,0426E01
949,89	-3,0304E01
950,18	-3,2283E01
950,48	-2,9765E01
950,77	-3,3202E01
951,06	-3,4730E01
951,36	-3,3451E01
951,65	-3,3420E01
951,95	-2,7890E01
952,24	-3,7469E01
952,54	-3,5129E01
952,83	-3,7693E01
953,13	-2,9190E01
953,42	-3,3040E01
953,71	-3,2016E01
954,01	-3,5482E01
954,30	-2,8240E01
954,60	-2,7217E01
954,89	-3,8027E01
955,18	-3,5521E01
955,48	-3,2139E01
955,77	-3,3729E01
956,07	-3,9239E01
956,36	-2,8266E01
956,65	-3,3151E01
956,95	-3,1054E01
957,24	-2,2800E01
957,53	-2,7462E01
957,83	-2,5788E01
958,12	-3,4226E01
958,41	-3,3433E01
958,71	-3,3952E01
959,00	-2,2464E01
959,29	-2,3849E01
959,59	-4,0004E01
959,88	-3,7648E01
960,17	-3,6612E01
960,46	-2,8154E01
960,76	-2,8469E01
961,05	-3,7124E01
961,34	-3,7507E01
961,64	-4,0145E01
961,93	-3,5249E01
962,22	-2,7547E01
962,51	-2,9501E01
962,81	-3,3074E01
963,10	-2,6699E01
963,39	-2,8684E01
963,68	-4,0473E01
963,97	-3,2858E01
964,27	-3,7481E01
964,56	-2,9342E01
964,85	-3,8966E01
965,14	-3,5050E01
965,43	-3,3304E01
965,73	-3,6125E01
966,02	-4,0151E01
966,31	-3,2317E01
966,60	-3,2952E01
966,89	-3,2655E01
967,19	-3,9239E01
967,48	-4,1178E01
967,77	-4,3386E01
968,06	-3,1080E01
968,35	-3,9094E01
968,64	-3,2691E01
968,93	-3,9710E01
969,22	-3,5836E01
969,52	-4,2703E01
969,81	-3,7534E01
970,10	-4,9473E01
970,39	-4,1945E01
970,68	-4,8281E01
970,97	-4,2174E01
971,26	-3,9757E01
971,55	-3,6500E01
971,84	-3,7542E01
972,13	-3,4002E01
972,42	-3,9700E01
972,71	-4,6869E01
973,01	-4,5739E01
973,30	-4,0425E01
973,59	-3,6472E01
973,88	-3,5885E01
974,17	-3,7837E01
974,46	-4,6958E01
974,75	-3,6952E01
975,04	-5,0568E01
975,33	-5,6727E01
975,62	-4,8507E01
975,91	-4,7596E01
976,20	-4,4333E01
976,49	-5,5378E01
976,78	-4,9631E01
977,07	-4,8367E01
977,36	-5,1131E01
977,64	-4,3236E01
977,93	-4,6529E01
978,22	-3,2240E01
978,51	-3,9330E01
978,80	-4,7515E01
979,09	-5,4865E01
979,38	-4,1877E01
979,67	-5,9934E01
979,96	-4,8136E01
980,25	-4,3917E01
980,54	-5,0823E01
980,83	-5,0506E01
981,12	-4,3880E01
981,40	-5,6817E01
981,69	-4,3621E01
981,98	-3,8473E01
982,27	-5,3676E01
982,56	-6,2447E01
982,85	-4,1832E01
983,14	-3,7858E01
983,42	-5,3132E01
983,71	-4,5992E01
984,00	-5,8313E01
984,29	-4,8522E01
984,58	-6,1271E01
984,87	-7,8372E01
985,15	-5,0286E01
985,44	-5,4784E01
985,73	-6,5076E01
986,02	-5,5664E01
986,31	-4,9619E01
986,59	-5,3568E01
986,88	-4,3460E01
987,17	-5,0113E01
987,46	-6,4396E01
987,74	-5,9009E01
988,03	-7,1186E01
988,32	-1,0107E02
988,61	-6,2467E01
988,89	-5,2158E01
989,18	-5,4604E01
989,47	-5,8014E01
989,76	-5,8001E01
990,04	-5,6730E01
990,33	-6,8352E01
990,62	-5,8081E01
990,90	-6,4259E01
991,19	-7,5008E01
991,48	-6,0016E01
991,76	-6,5433E01
992,05	-6,5977E01
992,34	-7,1718E01
992,62	-7,0876E01
992,91	-4,8730E01
993,20	-5,2471E01
993,48	-7,4174E01
993,77	-6,8180E01
994,06	-7,8319E01
994,34	-7,3632E01
994,63	-7,5285E01
994,92	-7,1450E01
995,20	-7,1180E01
995,49	-7,5250E01
995,77	-6,7356E01
996,06	-6,8019E01
996,35	-8,7125E01
996,63	-6,4535E01
996,92	-8,0333E01
997,20	-8,5862E01
997,49	-6,4174E01
997,77	-1,0904E02
998,06	-8,3914E01
998,34	-7,1949E01
998,63	-8,3078E01
998,92	-8,2728E01
999,20	-8,3916E01
999,49	-1,0289E02
999,77	-8,7174E01
1000,06	-9,2767E01
1000,34	-8,3583E01
1000,63	-9,9121E01
1000,91	-9,7735E01
1001,20	-1,2402E02
1001,48	-1,0579E02
1001,77	-1,1734E02
1002,05	-8,8076E01
1002,34	-1,2349E02
1002,62	-9,2330E01
1002,90	-1,0285E02
1003,19	-9,6638E01
1003,47	-1,0672E02
1003,76	-7,6257E01
1004,04	-1,0628E02
1004,33	-1,2730E02
1004,61	-8,7970E01
1004,89	-1,0802E02
1005,18	-7,9403E01
1005,46	-1,2820E02
1005,75	-1,4365E02
1006,03	-1,3508E02
1006,31	-1,2274E02
1006,60	-1,0494E02
1006,88	-1,2063E02
1007,17	-1,0984E02
1007,45	-1,3938E02
1007,73	-1,1673E02
1008,02	-1,3072E02
1008,30	-1,3794E02
1008,58	-1,1700E02
1008,87	-1,1429E02
1009,15	-1,3665E02
1009,43	-1,2761E02
1009,72	-1,0341E02
1010,00	-1,4193E02
1010,28	-1,4537E02
1010,57	-1,0340E02
1010,85	-1,3043E02
1011,13	-1,3861E02
1011,41	-1,1267E02
1011,70	-1,2258E02
1011,98	-1,0976E02
1012,26	-1,3133E02
1012,55	-1,0239E02
1012,83	-1,1698E02
1013,11	-1,3568E02
1013,39	-1,0819E02
1013,68	-1,6740E02
1013,96	-1,4381E02
1014,24	-1,3296E02
1014,52	-1,3519E02
1014,80	-1,6101E02
1015,09	-1,6295E02
1015,37	-1,5495E02
1015,65	-1,7165E02
1015,93	-1,6995E02
1016,21	-1,1613E02
1016,50	-1,4581E02
1016,78	-1,8459E02
1017,06	-1,2015E02
1017,34	-1,6512E02
1017,62	-2,0603E02
1017,90	-1,7627E02
1018,19	-1,2849E02
1018,47	-2,1119E02
1018,75	-1,5355E02
1019,03	-1,6453E02
1019,31	-1,7211E02
1019,59	-2,0402E02
1019,87	-1,5086E02
1020,15	-1,9754E02
1020,44	-2,3036E02
1020,72	-2,2771E02
1021,00	-1,8618E02
1021,28	-1,5540E02
1021,56	-1,9166E02
1021,84	-2,0440E02
1022,12	-2,1053E02
1022,40	-1,9961E02
1022,68	-1,6676E02
1022,96	-2,0748E02
1023,24	-2,2090E02
1023,52	-1,8961E02
1023,80	-1,8971E02
1024,08	-1,8971E02
>>>>>End Processed Spectral Data<<<<<
