SpectraSuite Datei
++++++++++++++++++++++++++++++++++++
Datum: Thu Jan 20 12:07:12 CET 2022
Benutzer: RMV
Dark-Spektrum vorhanden: Ja
Referenz-Spektrum vorhanden: Nein
Zahl der probierten Teilspektren: 1
Spektrometer: USB2+H07983
Integrationszeit (usec): 3170 (USB2+H07983)
Spektren Durchschnitt berechnet: 1 (USB2+H07983)
Boxcar Glättung: 0 (USB2+H07983)
Dunkelstromkorrektur: Nein (USB2+H07983)
Puls/Lampe aktiviert: Nein (USB2+H07983)
Correct for Detector Non-linearity: Nein (USB2+H07983)
Streulichtkorrektur: Nein (USB2+H07983)
Anzahl Pixel in verarbeitetem Spektrum: 2048
>>>>>Begin Processed Spectral Data<<<<<
339,47	-0,0000E00
339,85	-0,0000E00
340,24	-0,0000E00
340,62	-0,0000E00
341,01	-0,0000E00
341,39	-0,0000E00
341,77	-0,0000E00
342,16	-0,0000E00
342,54	-0,0000E00
342,92	-0,0000E00
343,31	-0,0000E00
343,69	-0,0000E00
344,07	-0,0000E00
344,46	-0,0000E00
344,84	-0,0000E00
345,22	-0,0000E00
345,61	-0,0000E00
345,99	-0,0000E00
346,37	-0,0000E00
346,76	-0,0000E00
347,14	-0,0000E00
347,52	-0,0000E00
347,91	-0,0000E00
348,29	-0,0000E00
348,67	-5,5617E00
349,05	-5,1508E00
349,44	-6,2394E00
349,82	-5,7105E00
350,20	-4,8084E00
350,59	-4,2173E00
350,97	-5,6987E00
351,35	-4,1853E00
351,73	-3,0758E00
352,12	-3,2842E00
352,50	-3,8582E00
352,88	-4,1052E00
353,26	-4,4245E00
353,65	-3,9188E00
354,03	-3,5158E00
354,41	-4,1015E00
354,79	-3,0179E00
355,17	-3,9665E00
355,56	-4,3162E00
355,94	-3,0338E00
356,32	-4,3254E00
356,70	-4,7694E00
357,08	-3,1625E00
357,47	-4,2081E00
357,85	-4,3448E00
358,23	-3,9295E00
358,61	-4,5564E00
358,99	-4,8907E00
359,38	-3,6440E00
359,76	-3,9022E00
360,14	-5,6150E00
360,52	-4,7006E00
360,90	-2,8220E00
361,28	-3,9488E00
361,66	-4,2772E00
362,05	-3,7855E00
362,43	-3,7630E00
362,81	-4,2277E00
363,19	-3,8735E00
363,57	-3,8993E00
363,95	-3,3278E00
364,33	-4,5181E00
364,71	-4,5760E00
365,10	-4,1417E00
365,48	-5,0841E00
365,86	-4,5575E00
366,24	-4,6563E00
366,62	-3,6381E00
367,00	-3,8826E00
367,38	-3,0295E00
367,76	-4,1076E00
368,14	-4,7846E00
368,52	-3,7941E00
368,90	-3,7913E00
369,28	-2,7087E00
369,66	-3,4561E00
370,04	-5,1107E00
370,42	-4,0684E00
370,81	-4,1320E00
371,19	-4,7415E00
371,57	-4,8492E00
371,95	-3,8413E00
372,33	-4,6031E00
372,71	-4,7580E00
373,09	-4,8930E00
373,47	-3,3859E00
373,85	-3,8455E00
374,23	-3,4518E00
374,61	-4,2255E00
374,99	-4,2814E00
375,37	-4,0007E00
375,75	-4,1782E00
376,13	-3,0319E00
376,51	-3,1363E00
376,88	-3,5574E00
377,26	-3,8382E00
377,64	-3,3415E00
378,02	-4,1514E00
378,40	-3,1904E00
378,78	-4,0129E00
379,16	-3,8811E00
379,54	-3,3301E00
379,92	-3,7014E00
380,30	-3,6408E00
380,68	-3,1881E00
381,06	-2,8526E00
381,44	-3,5376E00
381,82	-3,7329E00
382,20	-2,9700E00
382,57	-2,4924E00
382,95	-3,4091E00
383,33	-2,8173E00
383,71	-3,0657E00
384,09	-3,4416E00
384,47	-2,9908E00
384,85	-3,2256E00
385,23	-3,1929E00
385,60	-2,4996E00
385,98	-3,0065E00
386,36	-3,5961E00
386,74	-2,9382E00
387,12	-3,0008E00
387,50	-2,2993E00
387,88	-3,4284E00
388,25	-3,1430E00
388,63	-2,8944E00
389,01	-2,8416E00
389,39	-3,1003E00
389,77	-2,9078E00
390,14	-3,6871E00
390,52	-2,1136E00
390,90	-3,0959E00
391,28	-2,8479E00
391,66	-2,7813E00
392,03	-3,2025E00
392,41	-3,0072E00
392,79	-3,0279E00
393,17	-2,8192E00
393,54	-3,2479E00
393,92	-3,1495E00
394,30	-2,9301E00
394,68	-2,2165E00
395,06	-2,8231E00
395,43	-3,1140E00
395,81	-2,2360E00
396,19	-3,1481E00
396,56	-2,3874E00
396,94	-2,4254E00
397,32	-3,0825E00
397,70	-2,6122E00
398,07	-1,9408E00
398,45	-2,7785E00
398,83	-2,1272E00
399,20	-2,0667E00
399,58	-2,9651E00
399,96	-2,5387E00
400,34	-3,2604E00
400,71	-2,2966E00
401,09	-3,0520E00
401,47	-2,5697E00
401,84	-3,1758E00
402,22	-2,5873E00
402,60	-2,3956E00
402,97	-2,7872E00
403,35	-2,2598E00
403,73	-2,1321E00
404,10	-2,7023E00
404,48	-2,6575E00
404,85	-2,6755E00
405,23	-2,0457E00
405,61	-2,5557E00
405,98	-2,4627E00
406,36	-2,4229E00
406,74	-2,7180E00
407,11	-1,9012E00
407,49	-2,1182E00
407,86	-2,8156E00
408,24	-2,1815E00
408,62	-2,9940E00
408,99	-2,3550E00
409,37	-2,9621E00
409,74	-2,4863E00
410,12	-2,2971E00
410,49	-2,0777E00
410,87	-2,4852E00
411,25	-2,2666E00
411,62	-2,0085E00
412,00	-2,3042E00
412,37	-2,2158E00
412,75	-2,9261E00
413,12	-1,8798E00
413,50	-2,1649E00
413,87	-2,5588E00
414,25	-2,1440E00
414,62	-2,0188E00
415,00	-2,0020E00
415,37	-2,1511E00
415,75	-1,7413E00
416,12	-1,7298E00
416,50	-1,8266E00
416,87	-1,7083E00
417,25	-1,6108E00
417,62	-2,6016E00
418,00	-1,6672E00
418,37	-2,5319E00
418,75	-1,7447E00
419,12	-2,2075E00
419,50	-1,9389E00
419,87	-2,1126E00
420,25	-1,8851E00
420,62	-1,8782E00
420,99	-2,2261E00
421,37	-1,6619E00
421,74	-2,0176E00
422,12	-4,4682E00
422,49	-1,9672E00
422,87	-1,5749E00
423,24	-1,8669E00
423,61	-1,2687E00
423,99	-1,5085E00
424,36	-1,8814E00
424,74	-1,3040E00
425,11	-1,6791E00
425,48	-1,7979E00
425,86	-1,7906E00
426,23	-2,0276E00
426,60	-1,8756E00
426,98	-1,6164E00
427,35	-2,0268E00
427,73	-2,2899E00
428,10	-1,6221E00
428,47	-1,5351E00
428,85	-1,4945E00
429,22	-1,3947E00
429,59	-1,3562E00
429,97	-1,9117E00
430,34	-1,8007E00
430,71	-1,2272E00
431,09	-1,6153E00
431,46	-1,5651E00
431,83	-1,6617E00
432,21	-2,0152E00
432,58	-1,3227E00
432,95	-1,5731E00
433,32	-1,5743E00
433,70	-1,8851E00
434,07	-1,8317E00
434,44	-1,4257E00
434,82	-1,5062E00
435,19	-1,1184E00
435,56	-1,6934E00
435,93	-1,8151E00
436,31	-1,4432E00
436,68	-1,8104E00
437,05	-1,6947E00
437,42	-2,1936E00
437,80	-1,4918E00
438,17	-1,5169E00
438,54	-1,5004E00
438,91	-1,5364E00
439,28	-1,6746E00
439,66	-1,5026E00
440,03	-1,3212E00
440,40	-1,4255E00
440,77	-1,7231E00
441,14	-1,4540E00
441,52	-9,0447E-01
441,89	-1,4903E00
442,26	-1,3132E00
442,63	-1,2766E00
443,00	-1,6353E00
443,38	-1,4129E00
443,75	-1,5550E00
444,12	-1,3931E00
444,49	-1,3983E00
444,86	-1,2292E00
445,23	-9,4547E-01
445,60	-1,4328E00
445,98	-1,3989E00
446,35	-1,4888E00
446,72	-1,4268E00
447,09	-1,2965E00
447,46	-1,5165E00
447,83	-1,3585E00
448,20	-9,2214E-01
448,57	-1,3827E00
448,94	-1,5775E00
449,32	-1,1661E00
449,69	-1,1614E00
450,06	-1,3132E00
450,43	-1,4578E00
450,80	-1,3636E00
451,17	-1,1706E00
451,54	-1,3131E00
451,91	-9,4961E-01
452,28	-1,1672E00
452,65	-1,1850E00
453,02	-8,3211E-01
453,39	-1,3197E00
453,76	-1,3924E00
454,13	-1,0300E00
454,50	-1,3187E00
454,87	-1,3906E00
455,24	-1,6168E00
455,61	-1,0395E00
455,98	-1,1203E00
456,35	-1,5786E00
456,72	-1,5478E00
457,09	-1,6368E00
457,46	-1,3554E00
457,83	-1,3325E00
458,20	-1,5515E00
458,57	-1,3490E00
458,94	-9,8190E-01
459,31	-1,5843E00
459,68	-9,9012E-01
460,05	-1,3690E00
460,42	-1,2063E00
460,79	-1,1661E00
461,16	-1,2021E00
461,53	-1,1533E00
461,90	-1,3279E00
462,27	-6,6938E-01
462,64	-1,2842E00
463,01	-1,1017E00
463,38	-1,2402E00
463,75	-1,5436E00
464,12	-1,2214E00
464,48	-1,0829E00
464,85	-1,4810E00
465,22	-1,3185E00
465,59	-1,4591E00
465,96	-1,3696E00
466,33	-1,3696E00
466,70	-9,9330E-01
467,07	-1,2059E00
467,44	-1,1517E00
467,80	-9,3152E-01
468,17	-1,3412E00
468,54	-1,2405E00
468,91	-1,2871E00
469,28	-1,0715E00
469,65	-1,2942E00
470,02	-1,2396E00
470,38	-7,9237E-01
470,75	-9,9440E-01
471,12	-1,3763E00
471,49	-1,2610E00
471,86	-1,1694E00
472,22	-1,1451E00
472,59	-9,2749E-01
472,96	-1,0101E00
473,33	-8,1787E-01
473,70	-1,0782E00
474,06	-6,7055E-01
474,43	-1,0103E00
474,80	-9,9413E-01
475,17	-1,1220E00
475,54	-7,8220E-01
475,90	-8,6616E-01
476,27	-7,7416E-01
476,64	-9,2093E-01
477,01	-9,6947E-01
477,37	-8,1053E-01
477,74	-8,0297E-01
478,11	-9,7932E-01
478,48	-9,5607E-01
478,84	-7,0493E-01
479,21	-7,5176E-01
479,58	-7,3684E-01
479,94	-7,3328E-01
480,31	-8,9677E-01
480,68	-6,8690E-01
481,05	-8,8653E-01
481,41	-6,4741E-01
481,78	-5,6885E-01
482,15	-5,5162E-01
482,51	-5,8304E-01
482,88	-5,7061E-01
483,25	-6,4780E-01
483,61	-5,6860E-01
483,98	-4,0436E-01
484,35	-4,1042E-01
484,71	-5,7684E-01
485,08	-5,3601E-01
485,45	-5,4085E-01
485,81	-5,0157E-01
486,18	-5,1082E-01
486,54	-6,8240E-01
486,91	-5,7232E-01
487,28	-4,4526E-01
487,64	-4,9719E-01
488,01	-3,8224E-01
488,38	-4,9286E-01
488,74	-4,8868E-01
489,11	-5,2063E-01
489,47	-2,2264E-01
489,84	-5,2592E-01
490,20	-4,1259E-01
490,57	-5,4938E-01
490,94	-2,5988E-01
491,30	-2,8391E-01
491,67	-3,1189E-01
492,03	-3,4815E-01
492,40	-2,9949E-01
492,76	-3,5620E-01
493,13	-1,6246E-01
493,50	-3,9748E-01
493,86	-3,1271E-01
494,23	-3,1501E-01
494,59	-1,5856E-01
494,96	-2,1413E-01
495,32	-1,9686E-01
495,69	-2,0777E-01
496,05	-2,4231E-01
496,42	-2,5292E-01
496,78	-2,1621E-01
497,15	-2,1133E-01
497,51	-1,5976E-01
497,88	-1,0474E-01
498,24	-1,4679E-01
498,61	3,0781E-02
498,97	-5,7555E-02
499,34	6,1187E-02
499,70	3,4323E-02
500,06	9,1271E-02
500,43	6,8276E-02
500,79	1,4378E-01
501,16	1,3207E-01
501,52	2,7099E-01
501,89	2,4785E-01
502,25	4,4207E-01
502,62	2,1299E-01
502,98	1,9008E-01
503,34	4,2011E-01
503,71	4,1902E-01
504,07	3,8484E-01
504,44	4,9497E-01
504,80	3,9100E-01
505,16	5,9651E-01
505,53	5,2957E-01
505,89	5,5440E-01
506,26	6,4158E-01
506,62	7,8734E-01
506,98	6,8748E-01
507,35	6,7972E-01
507,71	7,7044E-01
508,07	7,1528E-01
508,44	9,4083E-01
508,80	8,1994E-01
509,16	9,8318E-01
509,53	9,2014E-01
509,89	1,1270E00
510,25	1,0871E00
510,62	1,1343E00
510,98	1,4067E00
511,34	1,1770E00
511,71	1,2244E00
512,07	1,3544E00
512,43	1,4263E00
512,80	1,3564E00
513,16	1,4027E00
513,52	1,5513E00
513,88	1,5613E00
514,25	1,4873E00
514,61	1,5548E00
514,97	1,5717E00
515,33	1,7770E00
515,70	1,7136E00
516,06	1,7785E00
516,42	1,9479E00
516,78	1,8819E00
517,15	1,9427E00
517,51	1,9414E00
517,87	2,2079E00
518,23	2,1295E00
518,60	2,2237E00
518,96	2,2349E00
519,32	2,4807E00
519,68	2,4976E00
520,04	2,6960E00
520,41	2,5763E00
520,77	2,4730E00
521,13	2,8172E00
521,49	2,6858E00
521,85	2,6728E00
522,22	2,8027E00
522,58	2,9882E00
522,94	2,8945E00
523,30	3,0169E00
523,66	3,1840E00
524,02	3,1593E00
524,38	3,3084E00
524,75	3,3446E00
525,11	3,4499E00
525,47	3,3485E00
525,83	3,6153E00
526,19	3,5849E00
526,55	3,6317E00
526,91	3,6285E00
527,27	3,8395E00
527,64	3,8285E00
528,00	4,0228E00
528,36	3,9643E00
528,72	3,9895E00
529,08	3,9195E00
529,44	4,1878E00
529,80	4,1230E00
530,16	4,3505E00
530,52	4,4098E00
530,88	4,3566E00
531,24	4,5670E00
531,60	4,7072E00
531,96	4,6183E00
532,32	4,6025E00
532,68	4,9235E00
533,04	4,9173E00
533,40	5,2225E00
533,77	5,0086E00
534,13	5,0772E00
534,49	5,1394E00
534,85	5,2787E00
535,21	5,5536E00
535,57	5,6241E00
535,93	5,6359E00
536,29	5,4630E00
536,65	5,9519E00
537,00	5,6196E00
537,36	5,8712E00
537,72	6,1222E00
538,08	6,0838E00
538,44	6,2170E00
538,80	6,3787E00
539,16	6,3988E00
539,52	6,5699E00
539,88	6,5765E00
540,24	6,7380E00
540,60	6,7866E00
540,96	6,6599E00
541,32	6,8106E00
541,68	6,7820E00
542,04	7,0426E00
542,40	7,0170E00
542,75	7,3310E00
543,11	7,3281E00
543,47	7,4245E00
543,83	7,6077E00
544,19	7,6634E00
544,55	7,5792E00
544,91	7,8147E00
545,27	7,9431E00
545,63	8,3100E00
545,98	8,3215E00
546,34	8,6602E00
546,70	8,4512E00
547,06	8,5803E00
547,42	8,4915E00
547,78	8,6823E00
548,13	9,0405E00
548,49	9,1593E00
548,85	9,1035E00
549,21	9,1030E00
549,57	9,3656E00
549,93	9,4839E00
550,28	9,5805E00
550,64	9,6745E00
551,00	9,9916E00
551,36	9,8662E00
551,71	1,0131E01
552,07	1,0020E01
552,43	1,0318E01
552,79	1,0615E01
553,15	1,0290E01
553,50	1,1138E01
553,86	1,0870E01
554,22	1,1022E01
554,58	1,0875E01
554,93	1,1350E01
555,29	1,1473E01
555,65	1,1548E01
556,01	1,1986E01
556,36	1,1723E01
556,72	1,1877E01
557,08	1,2005E01
557,43	1,2170E01
557,79	1,2516E01
558,15	1,2375E01
558,50	1,2489E01
558,86	1,3023E01
559,22	1,3320E01
559,58	1,3569E01
559,93	1,3356E01
560,29	1,3068E01
560,65	1,3727E01
561,00	1,3724E01
561,36	1,4030E01
561,71	1,4085E01
562,07	1,4066E01
562,43	1,4432E01
562,78	1,5010E01
563,14	1,4959E01
563,50	1,4993E01
563,85	1,5210E01
564,21	1,4850E01
564,57	1,5193E01
564,92	1,5506E01
565,28	1,5694E01
565,63	1,5829E01
565,99	1,5881E01
566,35	1,6125E01
566,70	1,6279E01
567,06	1,6693E01
567,41	1,6636E01
567,77	1,6578E01
568,12	1,6786E01
568,48	1,6935E01
568,83	1,7621E01
569,19	1,7405E01
569,55	1,7374E01
569,90	1,7994E01
570,26	1,7926E01
570,61	1,8373E01
570,97	1,8139E01
571,32	1,8546E01
571,68	1,8635E01
572,03	1,8461E01
572,39	1,8709E01
572,74	1,9052E01
573,10	1,9135E01
573,45	1,9434E01
573,81	1,9438E01
574,16	1,9558E01
574,52	1,9958E01
574,87	2,0468E01
575,23	1,9825E01
575,58	2,0369E01
575,94	2,0420E01
576,29	2,0905E01
576,64	2,0706E01
577,00	2,0956E01
577,35	2,0930E01
577,71	2,0932E01
578,06	2,1771E01
578,42	2,1835E01
578,77	2,1546E01
579,12	2,1301E01
579,48	2,1810E01
579,83	2,2246E01
580,19	2,2291E01
580,54	2,2602E01
580,89	2,2571E01
581,25	2,3270E01
581,60	2,2780E01
581,96	2,3510E01
582,31	2,2688E01
582,66	2,3250E01
583,02	2,3280E01
583,37	2,3361E01
583,72	2,3810E01
584,08	2,4013E01
584,43	2,3879E01
584,78	2,3869E01
585,14	2,4318E01
585,49	2,4253E01
585,84	2,4614E01
586,20	2,5482E01
586,55	2,4347E01
586,90	2,4641E01
587,26	2,5085E01
587,61	2,4911E01
587,96	2,4597E01
588,32	2,5425E01
588,67	2,5605E01
589,02	2,5523E01
589,37	2,5506E01
589,73	2,6224E01
590,08	2,5802E01
590,43	2,5993E01
590,78	2,5974E01
591,14	2,6764E01
591,49	2,5821E01
591,84	2,6469E01
592,19	2,6293E01
592,55	2,7120E01
592,90	2,6802E01
593,25	2,7130E01
593,60	2,6448E01
593,96	2,6527E01
594,31	2,7009E01
594,66	2,6973E01
595,01	2,7359E01
595,36	2,6999E01
595,72	2,7340E01
596,07	2,7098E01
596,42	2,7586E01
596,77	2,7150E01
597,12	2,7597E01
597,47	2,7638E01
597,83	2,7892E01
598,18	2,7564E01
598,53	2,7295E01
598,88	2,7588E01
599,23	2,7921E01
599,58	2,8003E01
599,93	2,8390E01
600,29	2,8375E01
600,64	2,7995E01
600,99	2,7626E01
601,34	2,7663E01
601,69	2,7732E01
602,04	2,8027E01
602,39	2,7666E01
602,74	2,7538E01
603,09	2,8223E01
603,44	2,8162E01
603,80	2,8158E01
604,15	2,7910E01
604,50	2,7344E01
604,85	2,8425E01
605,20	2,8252E01
605,55	2,8425E01
605,90	2,7820E01
606,25	2,7936E01
606,60	2,7545E01
606,95	2,7422E01
607,30	2,7759E01
607,65	2,8090E01
608,00	2,7924E01
608,35	2,7994E01
608,70	2,7515E01
609,05	2,7608E01
609,40	2,7391E01
609,75	2,7712E01
610,10	2,7620E01
610,45	2,8012E01
610,80	2,7174E01
611,15	2,7173E01
611,50	2,7802E01
611,85	2,7373E01
612,20	2,7096E01
612,55	2,6958E01
612,90	2,6594E01
613,25	2,6587E01
613,60	2,7111E01
613,95	2,7041E01
614,30	2,7659E01
614,64	2,6813E01
614,99	2,6355E01
615,34	2,6242E01
615,69	2,7230E01
616,04	2,6962E01
616,39	2,6662E01
616,74	2,6340E01
617,09	2,6562E01
617,44	2,6282E01
617,79	2,5856E01
618,13	2,6522E01
618,48	2,5918E01
618,83	2,5564E01
619,18	2,6151E01
619,53	2,6207E01
619,88	2,6244E01
620,23	2,6146E01
620,57	2,5117E01
620,92	2,5253E01
621,27	2,5774E01
621,62	2,5729E01
621,97	2,4973E01
622,32	2,5223E01
622,66	2,5414E01
623,01	2,4756E01
623,36	2,4991E01
623,71	2,5691E01
624,06	2,4845E01
624,40	2,4463E01
624,75	2,4563E01
625,10	2,4322E01
625,45	2,4733E01
625,80	2,4468E01
626,14	2,4051E01
626,49	2,4097E01
626,84	2,4067E01
627,19	2,3905E01
627,53	2,4101E01
627,88	2,3545E01
628,23	2,3637E01
628,57	2,4038E01
628,92	2,3459E01
629,27	2,3930E01
629,62	2,3111E01
629,96	2,3041E01
630,31	2,2982E01
630,66	2,3283E01
631,00	2,2447E01
631,35	2,2228E01
631,70	2,3102E01
632,05	2,2118E01
632,39	2,2033E01
632,74	2,1970E01
633,09	2,1858E01
633,43	2,2176E01
633,78	2,1943E01
634,12	2,1413E01
634,47	2,1346E01
634,82	2,1473E01
635,16	2,1709E01
635,51	2,1113E01
635,86	2,1410E01
636,20	2,0557E01
636,55	2,0917E01
636,90	2,0624E01
637,24	2,0772E01
637,59	2,0381E01
637,93	2,0808E01
638,28	2,0041E01
638,63	2,0259E01
638,97	2,0216E01
639,32	1,9234E01
639,66	1,9638E01
640,01	1,9792E01
640,35	1,9888E01
640,70	1,9338E01
641,04	1,9323E01
641,39	1,8795E01
641,74	1,9043E01
642,08	1,8665E01
642,43	1,9050E01
642,77	1,9073E01
643,12	1,8949E01
643,46	1,8808E01
643,81	1,8267E01
644,15	1,8504E01
644,50	1,8014E01
644,84	1,7805E01
645,19	1,7339E01
645,53	1,7889E01
645,88	1,7688E01
646,22	1,7400E01
646,57	1,7297E01
646,91	1,7321E01
647,26	1,7224E01
647,60	1,7595E01
647,94	1,6677E01
648,29	1,6775E01
648,63	1,6037E01
648,98	1,6737E01
649,32	1,6717E01
649,67	1,6087E01
650,01	1,6334E01
650,36	1,6062E01
650,70	1,5931E01
651,04	1,5653E01
651,39	1,5766E01
651,73	1,5073E01
652,08	1,5241E01
652,42	1,5010E01
652,76	1,5019E01
653,11	1,5082E01
653,45	1,5456E01
653,79	1,5170E01
654,14	1,4723E01
654,48	1,4983E01
654,83	1,4644E01
655,17	1,4427E01
655,51	1,4710E01
655,86	1,3667E01
656,20	1,4031E01
656,54	1,3935E01
656,89	1,3782E01
657,23	1,4035E01
657,57	1,3795E01
657,91	1,3144E01
658,26	1,3661E01
658,60	1,3275E01
658,94	1,2902E01
659,29	1,3198E01
659,63	1,2995E01
659,97	1,2740E01
660,32	1,3039E01
660,66	1,2970E01
661,00	1,2229E01
661,34	1,2286E01
661,69	1,2431E01
662,03	1,2713E01
662,37	1,2376E01
662,71	1,2113E01
663,06	1,1541E01
663,40	1,2192E01
663,74	1,1563E01
664,08	1,1366E01
664,42	1,1669E01
664,77	1,1428E01
665,11	1,1463E01
665,45	1,1432E01
665,79	1,1127E01
666,13	1,1418E01
666,48	1,1660E01
666,82	1,1163E01
667,16	1,0478E01
667,50	1,0692E01
667,84	1,0518E01
668,18	1,0679E01
668,53	1,0589E01
668,87	1,0386E01
669,21	1,0495E01
669,55	9,6076E00
669,89	9,7050E00
670,23	1,0047E01
670,57	9,8502E00
670,92	9,9269E00
671,26	9,8970E00
671,60	9,6858E00
671,94	9,4842E00
672,28	9,7385E00
672,62	9,3996E00
672,96	9,3168E00
673,30	9,2345E00
673,64	9,4306E00
673,98	8,9118E00
674,33	9,4380E00
674,67	8,8112E00
675,01	8,4785E00
675,35	9,1035E00
675,69	8,4850E00
676,03	9,1486E00
676,37	8,7034E00
676,71	8,5056E00
677,05	8,1640E00
677,39	8,0579E00
677,73	7,6756E00
678,07	8,2029E00
678,41	8,2499E00
678,75	8,2627E00
679,09	7,2955E00
679,43	8,0712E00
679,77	7,6279E00
680,11	7,9459E00
680,45	7,5133E00
680,79	7,3740E00
681,13	7,8467E00
681,47	7,1746E00
681,81	7,5668E00
682,15	7,4436E00
682,49	7,2750E00
682,83	7,1409E00
683,17	7,0889E00
683,51	7,2064E00
683,84	6,6245E00
684,18	6,6117E00
684,52	6,9896E00
684,86	6,3272E00
685,20	6,5550E00
685,54	6,4993E00
685,88	6,4343E00
686,22	6,0643E00
686,56	6,5652E00
686,90	6,1031E00
687,24	6,4014E00
687,57	6,2255E00
687,91	6,0376E00
688,25	5,9017E00
688,59	6,1612E00
688,93	5,6436E00
689,27	5,5907E00
689,61	5,7044E00
689,94	5,4676E00
690,28	5,4927E00
690,62	5,2255E00
690,96	5,7710E00
691,30	5,4779E00
691,64	4,8404E00
691,97	5,4216E00
692,31	5,4636E00
692,65	5,1666E00
692,99	5,0481E00
693,33	5,3381E00
693,66	5,3000E00
694,00	4,9527E00
694,34	4,8866E00
694,68	4,6439E00
695,01	4,6208E00
695,35	4,5969E00
695,69	4,6916E00
696,03	4,8500E00
696,36	4,6516E00
696,70	4,7843E00
697,04	4,3371E00
697,38	4,7199E00
697,71	4,2039E00
698,05	4,6250E00
698,39	4,5088E00
698,72	4,0996E00
699,06	3,7435E00
699,40	3,9903E00
699,74	3,7857E00
700,07	3,7971E00
700,41	4,0845E00
700,75	3,9245E00
701,08	3,6966E00
701,42	4,0721E00
701,76	4,1818E00
702,09	4,0512E00
702,43	3,4916E00
702,77	3,9801E00
703,10	3,9039E00
703,44	3,5046E00
703,77	3,7608E00
704,11	3,0825E00
704,45	3,5659E00
704,78	3,5264E00
705,12	3,2092E00
705,46	2,8586E00
705,79	3,2847E00
706,13	3,0731E00
706,46	2,7896E00
706,80	2,9385E00
707,14	3,2380E00
707,47	3,0346E00
707,81	3,6202E00
708,14	2,6030E00
708,48	2,8452E00
708,81	3,0884E00
709,15	2,4200E00
709,48	3,1162E00
709,82	3,1149E00
710,16	3,0617E00
710,49	2,4171E00
710,83	2,6321E00
711,16	1,9202E00
711,50	2,5429E00
711,83	2,5819E00
712,17	2,4625E00
712,50	2,4699E00
712,84	1,8841E00
713,17	2,4411E00
713,51	2,3642E00
713,84	1,9657E00
714,18	2,0033E00
714,51	1,6874E00
714,85	1,9831E00
715,18	1,6544E00
715,51	1,9528E00
715,85	1,7959E00
716,18	1,7687E00
716,52	1,7755E00
716,85	2,0345E00
717,19	1,5445E00
717,52	1,5607E00
717,86	1,0890E00
718,19	1,3048E00
718,52	1,9927E00
718,86	1,5615E00
719,19	1,8823E00
719,53	1,6968E00
719,86	1,5902E00
720,19	1,5160E00
720,53	1,2928E00
720,86	1,5152E00
721,19	1,6244E00
721,53	1,3524E00
721,86	1,0552E00
722,20	1,5005E00
722,53	1,0270E00
722,86	9,4839E-01
723,20	1,6672E00
723,53	9,7659E-01
723,86	9,7904E-01
724,20	1,2888E00
724,53	1,0077E00
724,86	9,9830E-01
725,19	1,1787E00
725,53	1,0979E00
725,86	7,8923E-01
726,19	8,0297E-01
726,53	8,7665E-01
726,86	2,7692E-01
727,19	1,1349E00
727,53	8,8315E-01
727,86	3,8805E-01
728,19	1,0449E00
728,52	6,2102E-01
728,86	6,8367E-01
729,19	6,3623E-01
729,52	4,0469E-01
729,85	9,7061E-01
730,19	7,5127E-01
730,52	9,7480E-01
730,85	5,4381E-01
731,18	3,8399E-01
731,51	9,6834E-01
731,85	3,7337E-01
732,18	4,7392E-01
732,51	7,8758E-01
732,84	1,0024E-01
733,17	5,6518E-01
733,51	1,1331E-01
733,84	7,4458E-01
734,17	8,8573E-02
734,50	2,5376E-02
734,83	3,9435E-01
735,16	-1,2749E-02
735,50	-2,1731E-01
735,83	1,0253E-01
736,16	-3,7255E-01
736,49	1,5449E-01
736,82	5,1620E-02
737,15	0,0000E00
737,48	-1,9453E-01
737,81	4,9401E-01
738,15	-1,3036E-02
738,48	3,7904E-01
738,81	-4,0623E-01
739,14	5,2518E-02
739,47	-6,5807E-02
739,80	-2,5067E-01
740,13	-3,7061E-01
740,46	3,3179E-01
740,79	1,4637E-01
741,12	-1,8685E-01
741,45	-2,4092E-01
741,78	-4,0250E-01
742,11	1,3451E-02
742,44	-1,6186E-01
742,78	-1,4886E-01
743,11	-1,3572E-01
743,44	-1,0342E00
743,77	0,0000E00
744,10	-3,0088E-01
744,43	-2,7426E-01
744,76	1,2373E-01
745,09	-3,8577E-01
745,42	-1,7960E-01
745,75	-2,7703E-01
746,08	-6,2520E-01
746,41	-6,9629E-01
746,74	-6,7020E-01
747,07	-6,0246E-01
747,40	-5,3408E-01
747,72	-8,7353E-01
748,05	-4,9473E-01
748,38	-7,7971E-01
748,71	-1,2662E00
749,04	-3,1394E-01
749,37	-7,5853E-01
749,70	-2,8706E-01
750,03	-6,9106E-01
750,36	-1,1986E00
750,69	-5,6481E-01
751,02	-7,9911E-01
751,35	-1,2681E00
751,68	-1,6666E00
752,00	-9,3856E-01
752,33	-7,7956E-01
752,66	-1,0918E00
752,99	-1,2877E00
753,32	-1,0840E00
753,65	-1,2811E00
753,98	-1,2552E00
754,31	-1,4092E00
754,63	-1,0530E00
754,96	-9,5060E-01
755,29	-6,2058E-01
755,62	-1,6702E00
755,95	-1,2642E00
756,28	-8,5551E-01
756,60	-1,7009E00
756,93	-1,3218E00
757,26	-1,6341E00
757,59	-9,2806E-01
757,92	-1,0237E00
758,24	-9,6439E-01
758,57	-1,0615E00
758,90	-1,6757E00
759,23	-1,5866E00
759,56	-1,2923E00
759,88	-2,1667E00
760,21	-1,3327E00
760,54	-1,7185E00
760,87	-7,8235E-01
761,19	-1,3455E00
761,52	-1,3983E00
761,85	-8,7081E-01
762,18	-1,6983E00
762,50	-1,3953E00
762,83	-8,3016E-01
763,16	-1,1918E00
763,49	-1,7851E00
763,81	-1,7249E00
764,14	-1,0881E00
764,47	-1,2238E00
764,79	-1,9576E00
765,12	-1,7975E00
765,45	-1,6358E00
765,77	-1,6242E00
766,10	-1,9147E00
766,43	-1,6514E00
766,75	-1,5893E00
767,08	-1,1537E00
767,41	-1,3785E00
767,73	-2,2025E00
768,06	-1,6781E00
768,39	-1,8050E00
768,71	-1,1727E00
769,04	-8,9963E-01
769,36	-2,1864E00
769,69	-1,9683E00
770,02	-1,3633E00
770,34	-2,0511E00
770,67	-1,8998E00
770,99	-1,8720E00
771,32	-1,8247E00
771,65	-1,4227E00
771,97	-1,4628E00
772,30	-2,7034E00
772,62	-1,9229E00
772,95	-2,2551E00
773,27	-1,7553E00
773,60	-2,0524E00
773,93	-2,9908E00
774,25	-2,1039E00
774,58	-1,8357E00
774,90	-2,1012E00
775,23	-1,6833E00
775,55	-2,3769E00
775,88	-2,4422E00
776,20	-2,4148E00
776,53	-2,5383E00
776,85	-2,0971E00
777,18	-1,6884E00
777,50	-3,1620E00
777,83	-2,8510E00
778,15	-2,3263E00
778,48	-2,2010E00
778,80	-2,0177E00
779,13	-2,4746E00
779,45	-2,3294E00
779,78	-1,5919E00
780,10	-1,1833E00
780,42	-2,3750E00
780,75	-2,5025E00
781,07	-2,5113E00
781,40	-1,9188E00
781,72	-2,5452E00
782,05	-2,2701E00
782,37	-1,9329E00
782,69	-2,7021E00
783,02	-3,0881E00
783,34	-1,5560E00
783,67	-2,1245E00
783,99	-2,4089E00
784,31	-2,3687E00
784,64	-1,8835E00
784,96	-2,4916E00
785,28	-2,5719E00
785,61	-2,2467E00
785,93	-3,4981E00
786,25	-2,6064E00
786,58	-3,2309E00
786,90	-2,9046E00
787,22	-2,8611E00
787,55	-2,4341E00
787,87	-3,0939E00
788,19	-3,0075E00
788,52	-2,3011E00
788,84	-2,0574E00
789,16	-2,6125E00
789,49	-2,6874E00
789,81	-2,7813E00
790,13	-3,1535E00
790,46	-2,4750E00
790,78	-2,2728E00
791,10	-2,4083E00
791,42	-2,2264E00
791,75	-2,6771E00
792,07	-2,8521E00
792,39	-2,8293E00
792,71	-1,7662E00
793,04	-2,2745E00
793,36	-3,1163E00
793,68	-3,4456E00
794,00	-2,6810E00
794,32	-1,9562E00
794,65	-1,7209E00
794,97	-2,1716E00
795,29	-2,3468E00
795,61	-2,8164E00
795,93	-1,8966E00
796,26	-2,7386E00
796,58	-2,5845E00
796,90	-1,9987E00
797,22	-2,4525E00
797,54	-1,8461E00
797,87	-2,2219E00
798,19	-2,5398E00
798,51	-2,6995E00
798,83	-2,3887E00
799,15	-3,3608E00
799,47	-2,3370E00
799,79	-2,4211E00
800,12	-2,9607E00
800,44	-2,2298E00
800,76	-3,1916E00
801,08	-2,1387E00
801,40	-2,4841E00
801,72	-3,4938E00
802,04	-3,1006E00
802,36	-3,1698E00
802,68	-3,7461E00
803,00	-2,8419E00
803,32	-2,9919E00
803,65	-2,7766E00
803,97	-2,8660E00
804,29	-3,1821E00
804,61	-3,3155E00
804,93	-2,9529E00
805,25	-2,4439E00
805,57	-2,5763E00
805,89	-3,2495E00
806,21	-2,7574E00
806,53	-3,3560E00
806,85	-3,0947E00
807,17	-3,0630E00
807,49	-2,4809E00
807,81	-2,2349E00
808,13	-2,7760E00
808,45	-3,2583E00
808,77	-3,0783E00
809,09	-3,1543E00
809,41	-3,4052E00
809,73	-2,5920E00
810,05	-3,2779E00
810,37	-2,9614E00
810,69	-3,2151E00
811,01	-3,1392E00
811,33	-3,0392E00
811,64	-3,0970E00
811,96	-4,4050E00
812,28	-3,2543E00
812,60	-3,1319E00
812,92	-3,6872E00
813,24	-3,3377E00
813,56	-3,3509E00
813,88	-4,0962E00
814,20	-3,9516E00
814,52	-2,7896E00
814,83	-2,9177E00
815,15	-4,1149E00
815,47	-2,2410E00
815,79	-4,0285E00
816,11	-3,0577E00
816,43	-3,9435E00
816,75	-2,9634E00
817,06	-4,0000E00
817,38	-3,7526E00
817,70	-3,4070E00
818,02	-4,4584E00
818,34	-3,7502E00
818,66	-3,6689E00
818,97	-3,6116E00
819,29	-4,3149E00
819,61	-4,2328E00
819,93	-3,6069E00
820,25	-2,9269E00
820,56	-2,9880E00
820,88	-4,1985E00
821,20	-2,5612E00
821,52	-3,5797E00
821,84	-3,4673E00
822,15	-4,1672E00
822,47	-2,8818E00
822,79	-4,1741E00
823,11	-3,6243E00
823,42	-4,7502E00
823,74	-4,1975E00
824,06	-3,9014E00
824,37	-3,4476E00
824,69	-3,7483E00
825,01	-3,7354E00
825,33	-3,2219E00
825,64	-5,1158E00
825,96	-3,6984E00
826,28	-4,1103E00
826,59	-5,3854E00
826,91	-4,5698E00
827,23	-3,0763E00
827,54	-4,9548E00
827,86	-4,0492E00
828,18	-4,9904E00
828,49	-4,0506E00
828,81	-4,8596E00
829,13	-3,8279E00
829,44	-3,9251E00
829,76	-3,8298E00
830,08	-4,1224E00
830,39	-4,5850E00
830,71	-3,4781E00
831,02	-5,3228E00
831,34	-3,8720E00
831,66	-3,6020E00
831,97	-3,9871E00
832,29	-4,5754E00
832,60	-4,1062E00
832,92	-4,0644E00
833,23	-3,5293E00
833,55	-5,7783E00
833,87	-3,9642E00
834,18	-4,6536E00
834,50	-4,7566E00
834,81	-4,3033E00
835,13	-4,0527E00
835,44	-4,5103E00
835,76	-5,0907E00
836,07	-4,9882E00
836,39	-3,9554E00
836,70	-4,0286E00
837,02	-3,9504E00
837,33	-3,7231E00
837,65	-4,9514E00
837,96	-3,9638E00
838,28	-4,7736E00
838,59	-4,3611E00
838,91	-5,0851E00
839,22	-6,0582E00
839,54	-4,2467E00
839,85	-3,8854E00
840,17	-4,6123E00
840,48	-3,1549E00
840,80	-2,9093E00
841,11	-5,8941E00
841,43	-4,2391E00
841,74	-3,4898E00
842,05	-5,5105E00
842,37	-3,5034E00
842,68	-4,2417E00
843,00	-4,2569E00
843,31	-4,9745E00
843,62	-5,0899E00
843,94	-4,9863E00
844,25	-5,7844E00
844,57	-3,7646E00
844,88	-5,0570E00
845,19	-2,5253E00
845,51	-6,5932E00
845,82	-5,5282E00
846,13	-5,7831E00
846,45	-5,4393E00
846,76	-5,4591E00
847,07	-6,5226E00
847,39	-4,4542E00
847,70	-4,3697E00
848,01	-5,7165E00
848,33	-5,9427E00
848,64	-3,3939E00
848,95	-2,9241E00
849,27	-4,6625E00
849,58	-4,8896E00
849,89	-3,9695E00
850,21	-6,1876E00
850,52	-5,6850E00
850,83	-5,1419E00
851,14	-4,1357E00
851,46	-5,3900E00
851,77	-5,8021E00
852,08	-6,3237E00
852,39	-5,7052E00
852,71	-6,0864E00
853,02	-6,2885E00
853,33	-5,0009E00
853,64	-5,4899E00
853,96	-4,8528E00
854,27	-4,1759E00
854,58	-4,3392E00
854,89	-5,4241E00
855,20	-5,4436E00
855,52	-4,8672E00
855,83	-4,6957E00
856,14	-5,4614E00
856,45	-5,3321E00
856,76	-5,4289E00
857,07	-5,3371E00
857,39	-5,6232E00
857,70	-5,5260E00
858,01	-6,1563E00
858,32	-5,6426E00
858,63	-5,1625E00
858,94	-7,7333E00
859,25	-6,9509E00
859,57	-6,2381E00
859,88	-6,5378E00
860,19	-6,8361E00
860,50	-6,9042E00
860,81	-6,0601E00
861,12	-6,0055E00
861,43	-6,2700E00
861,74	-6,6552E00
862,05	-5,7557E00
862,36	-5,6992E00
862,67	-5,0732E00
862,99	-6,1892E00
863,30	-7,2344E00
863,61	-5,8716E00
863,92	-7,0898E00
864,23	-6,7050E00
864,54	-6,3208E00
864,85	-6,6395E00
865,16	-6,7508E00
865,47	-7,6631E00
865,78	-7,4419E00
866,09	-6,2405E00
866,40	-6,0991E00
866,71	-7,4938E00
867,02	-5,9793E00
867,33	-7,9064E00
867,64	-4,8580E00
867,95	-4,1382E00
868,26	-4,8583E00
868,57	-7,5204E00
868,88	-8,3081E00
869,19	-7,2830E00
869,50	-7,1366E00
869,81	-8,7852E00
870,12	-7,6154E00
870,42	-5,4781E00
870,73	-7,3249E00
871,04	-6,4967E00
871,35	-5,9770E00
871,66	-6,7906E00
871,97	-8,8234E00
872,28	-8,0256E00
872,59	-5,8647E00
872,90	-1,0856E01
873,21	-6,1697E00
873,52	-7,2030E00
873,82	-6,6186E00
874,13	-6,5613E00
874,44	-7,3227E00
874,75	-8,5319E00
875,06	-8,2383E00
875,37	-6,3083E00
875,68	-6,4443E00
875,98	-7,8246E00
876,29	-5,3570E00
876,60	-8,3534E00
876,91	-6,7797E00
877,22	-9,9186E00
877,52	-7,9223E00
877,83	-7,2953E00
878,14	-6,4592E00
878,45	-7,0673E00
878,76	-9,4060E00
879,06	-6,0417E00
879,37	-9,3462E00
879,68	-8,4978E00
879,99	-6,9956E00
880,30	-9,1781E00
880,60	-9,6046E00
880,91	-9,5424E00
881,22	-9,2679E00
881,53	-7,3946E00
881,83	-7,4824E00
882,14	-1,1388E01
882,45	-9,6087E00
882,75	-8,9246E00
883,06	-8,5713E00
883,37	-9,8962E00
883,68	-7,5686E00
883,98	-1,0206E01
884,29	-7,9705E00
884,60	-8,9110E00
884,90	-1,1118E01
885,21	-7,9906E00
885,52	-8,8202E00
885,82	-8,6655E00
886,13	-7,3632E00
886,44	-9,0629E00
886,74	-7,9779E00
887,05	-1,0447E01
887,36	-6,9570E00
887,66	-8,7268E00
887,97	-8,5100E00
888,27	-8,1752E00
888,58	-1,0430E01
888,89	-9,5620E00
889,19	-7,8104E00
889,50	-7,9355E00
889,80	-8,4824E00
890,11	-8,7353E00
890,42	-1,0293E01
890,72	-9,7751E00
891,03	-7,8207E00
891,33	-9,7458E00
891,64	-8,6803E00
891,94	-7,1333E00
892,25	-8,1642E00
892,56	-8,2883E00
892,86	-8,2402E00
893,17	-1,0361E01
893,47	-1,1097E01
893,78	-7,8482E00
894,08	-9,0592E00
894,39	-1,0457E01
894,69	-7,9228E00
895,00	-9,5642E00
895,30	-1,0357E01
895,61	-1,0789E01
895,91	-1,1529E01
896,22	-9,1642E00
896,52	-9,1079E00
896,83	-9,3558E00
897,13	-1,1122E01
897,43	-8,6358E00
897,74	-1,0285E01
898,04	-7,9770E00
898,35	-1,0051E01
898,65	-1,0604E01
898,96	-8,7773E00
899,26	-1,1527E01
899,57	-9,1562E00
899,87	-1,0077E01
900,17	-9,3480E00
900,48	-8,3758E00
900,78	-9,6640E00
901,09	-1,1198E01
901,39	-9,4953E00
901,69	-8,9493E00
902,00	-1,0918E01
902,30	-9,0908E00
902,60	-9,6554E00
902,91	-1,1089E01
903,21	-6,9729E00
903,51	-8,3468E00
903,82	-9,9152E00
904,12	-8,5135E00
904,42	-9,2854E00
904,73	-9,6842E00
905,03	-1,2279E01
905,33	-1,0557E01
905,64	-8,1887E00
905,94	-1,0987E01
906,24	-1,0948E01
906,55	-1,0283E01
906,85	-1,0120E01
907,15	-1,0017E01
907,45	-1,1386E01
907,76	-1,1922E01
908,06	-8,1591E00
908,36	-9,6655E00
908,66	-9,0533E00
908,97	-8,6891E00
909,27	-1,0213E01
909,57	-8,0891E00
909,87	-6,7336E00
910,18	-1,0039E01
910,48	-1,1325E01
910,78	-8,5930E00
911,08	-1,3136E01
911,39	-1,1324E01
911,69	-1,2300E01
911,99	-1,2214E01
912,29	-1,0251E01
912,59	-1,2535E01
912,89	-1,2595E01
913,20	-9,1733E00
913,50	-1,1490E01
913,80	-1,0512E01
914,10	-1,1055E01
914,40	-9,9948E00
914,70	-1,1174E01
915,01	-1,2936E01
915,31	-1,2580E01
915,61	-1,1861E01
915,91	-9,5586E00
916,21	-1,1716E01
916,51	-1,2222E01
916,81	-8,4883E00
917,11	-1,1925E01
917,41	-1,0732E01
917,72	-1,3934E01
918,02	-1,1764E01
918,32	-1,2127E01
918,62	-1,4091E01
918,92	-1,0210E01
919,22	-9,8838E00
919,52	-1,3329E01
919,82	-1,3636E01
920,12	-7,7160E00
920,42	-1,0590E01
920,72	-1,3028E01
921,02	-1,1917E01
921,32	-1,3763E01
921,62	-1,2654E01
921,92	-1,4771E01
922,22	-1,5455E01
922,52	-1,1448E01
922,82	-1,1614E01
923,12	-1,4209E01
923,42	-1,4469E01
923,72	-9,4019E00
924,02	-1,4149E01
924,32	-1,2703E01
924,62	-1,1758E01
924,92	-1,3674E01
925,22	-1,3252E01
925,52	-1,1762E01
925,82	-1,3730E01
926,12	-1,2669E01
926,42	-1,6487E01
926,72	-1,0692E01
927,02	-1,5664E01
927,31	-1,6452E01
927,61	-1,2841E01
927,91	-1,7939E01
928,21	-1,5699E01
928,51	-1,6763E01
928,81	-1,5340E01
929,11	-1,5064E01
929,41	-1,6156E01
929,71	-1,1348E01
930,00	-1,5428E01
930,30	-1,5751E01
930,60	-1,4665E01
930,90	-1,5709E01
931,20	-1,6064E01
931,50	-1,6122E01
931,79	-1,5977E01
932,09	-1,4561E01
932,39	-1,7620E01
932,69	-1,4772E01
932,99	-1,6578E01
933,29	-1,5538E01
933,58	-1,9320E01
933,88	-1,6034E01
934,18	-1,4386E01
934,48	-2,2948E01
934,77	-1,5314E01
935,07	-1,7060E01
935,37	-2,0661E01
935,67	-1,9844E01
935,97	-1,7771E01
936,26	-1,6020E01
936,56	-2,3424E01
936,86	-1,7157E01
937,15	-2,1780E01
937,45	-1,8918E01
937,75	-2,1692E01
938,05	-2,1392E01
938,34	-2,3352E01
938,64	-2,2914E01
938,94	-1,5555E01
939,23	-2,3623E01
939,53	-1,8719E01
939,83	-2,3108E01
940,12	-2,1326E01
940,42	-3,9122E01
940,72	-3,0810E01
941,01	-2,9864E01
941,31	-2,2761E01
941,61	-3,0703E01
941,90	-2,7865E01
942,20	-2,4392E01
942,50	-2,4932E01
942,79	-2,5292E01
943,09	-1,6895E01
943,38	-3,0455E01
943,68	-3,1369E01
943,98	-2,8850E01
944,27	-2,5277E01
944,57	-2,2773E01
944,86	-3,3281E01
945,16	-3,5942E01
945,46	-3,4159E01
945,75	-3,9206E01
946,05	-3,5379E01
946,34	-3,3316E01
946,64	-3,0186E01
946,93	-2,6385E01
947,23	-3,0608E01
947,52	-3,5259E01
947,82	-2,6005E01
948,12	-2,6301E01
948,41	-2,6190E01
948,71	-3,5080E01
949,00	-3,5198E01
949,30	-3,2975E01
949,59	-3,5134E01
949,89	-3,0940E01
950,18	-3,3769E01
950,48	-4,0608E01
950,77	-3,4905E01
951,06	-3,5583E01
951,36	-2,9616E01
951,65	-3,6613E01
951,95	-3,7045E01
952,24	-4,0875E01
952,54	-3,7897E01
952,83	-3,4073E01
953,13	-3,2173E01
953,42	-2,4940E01
953,71	-3,7992E01
954,01	-3,7620E01
954,30	-2,4389E01
954,60	-2,8717E01
954,89	-3,4375E01
955,18	-4,1119E01
955,48	-3,3865E01
955,77	-3,1783E01
956,07	-3,8805E01
956,36	-3,7834E01
956,65	-2,9661E01
956,95	-3,2584E01
957,24	-3,0035E01
957,53	-3,1637E01
957,83	-3,3282E01
958,12	-3,0914E01
958,41	-3,6533E01
958,71	-3,0845E01
959,00	-2,6468E01
959,29	-2,2958E01
959,59	-3,5087E01
959,88	-4,3026E01
960,17	-3,4590E01
960,46	-3,9641E01
960,76	-3,5247E01
961,05	-3,8709E01
961,34	-3,4097E01
961,64	-4,0829E01
961,93	-4,0972E01
962,22	-2,9154E01
962,51	-2,8809E01
962,81	-3,9319E01
963,10	-2,9253E01
963,39	-2,9383E01
963,68	-3,6028E01
963,97	-4,2011E01
964,27	-4,0545E01
964,56	-3,5968E01
964,85	-3,9916E01
965,14	-2,9566E01
965,43	-3,3783E01
965,73	-3,8052E01
966,02	-4,4747E01
966,31	-3,4261E01
966,60	-2,7338E01
966,89	-3,6828E01
967,19	-3,8005E01
967,48	-4,4403E01
967,77	-4,7625E01
968,06	-3,5842E01
968,35	-3,8842E01
968,64	-3,8266E01
968,93	-3,9710E01
969,22	-3,9163E01
969,52	-4,7590E01
969,81	-2,9250E01
970,10	-4,6869E01
970,39	-4,5615E01
970,68	-4,6962E01
970,97	-4,6948E01
971,26	-3,7089E01
971,55	-3,9989E01
971,84	-4,2673E01
972,13	-3,9171E01
972,42	-3,7784E01
972,71	-4,6317E01
973,01	-5,1006E01
973,30	-4,6280E01
973,59	-3,6472E01
973,88	-4,5774E01
974,17	-3,6983E01
974,46	-4,8676E01
974,75	-4,3591E01
975,04	-4,9696E01
975,33	-4,7955E01
975,62	-4,7331E01
975,91	-4,7596E01
976,20	-4,5821E01
976,49	-4,5201E01
976,78	-4,3916E01
977,07	-4,2926E01
977,36	-5,3262E01
977,64	-3,7103E01
977,93	-4,6837E01
978,22	-4,3090E01
978,51	-3,5584E01
978,80	-4,5627E01
979,09	-6,6282E01
979,38	-5,1468E01
979,67	-5,8646E01
979,96	-4,7485E01
980,25	-5,2766E01
980,54	-4,2903E01
980,83	-4,6187E01
981,12	-4,4215E01
981,40	-5,7493E01
981,69	-4,3621E01
981,98	-4,6030E01
982,27	-5,2291E01
982,56	-5,9656E01
982,85	-5,4135E01
983,14	-4,6703E01
983,42	-5,5985E01
983,71	-5,6053E01
984,00	-6,5919E01
984,29	-5,1440E01
984,58	-5,9804E01
984,87	-5,5822E01
985,15	-6,8538E01
985,44	-5,4409E01
985,73	-6,4697E01
986,02	-5,3757E01
986,31	-4,7311E01
986,59	-6,5602E01
986,88	-5,5989E01
987,17	-7,3789E01
987,46	-6,9166E01
987,74	-5,4594E01
988,03	-6,1075E01
988,32	-1,1004E02
988,61	-6,6987E01
988,89	-6,0023E01
989,18	-5,8772E01
989,47	-6,0956E01
989,76	-6,2235E01
990,04	-5,8436E01
990,33	-7,4801E01
990,62	-6,3716E01
990,90	-6,2948E01
991,19	-7,7215E01
991,48	-6,5350E01
991,76	-6,9467E01
992,05	-5,9650E01
992,34	-6,6693E01
992,62	-8,0080E01
992,91	-5,8940E01
993,20	-4,5912E01
993,48	-7,2284E01
993,77	-6,6273E01
994,06	-8,3604E01
994,34	-7,1695E01
994,63	-8,1151E01
994,92	-7,6378E01
995,20	-8,1135E01
995,49	-9,2809E01
995,77	-7,6978E01
996,06	-6,9553E01
996,35	-6,8566E01
996,63	-6,8178E01
996,92	-9,7134E01
997,20	-7,7912E01
997,49	-6,6848E01
997,77	-9,8780E01
998,06	-9,4812E01
998,34	-7,4696E01
998,63	-9,1386E01
998,92	-8,7758E01
999,20	-9,7433E01
999,49	-8,8681E01
999,77	-9,0041E01
1000,06	-1,0378E02
1000,34	-7,7738E01
1000,63	-1,0679E02
1000,91	-7,7473E01
1001,20	-8,9702E01
1001,48	-9,1197E01
1001,77	-8,6626E01
1002,05	-1,1289E02
1002,34	-1,1534E02
1002,62	-1,0182E02
1002,90	-9,5822E01
1003,19	-1,0179E02
1003,47	-1,0347E02
1003,76	-8,6775E01
1004,04	-1,1624E02
1004,33	-1,2395E02
1004,61	-9,5413E01
1004,89	-1,0597E02
1005,18	-9,8735E01
1005,46	-1,3935E02
1005,75	-1,1970E02
1006,03	-1,4219E02
1006,31	-1,0838E02
1006,60	-1,1290E02
1006,88	-1,0381E02
1007,17	-1,2974E02
1007,45	-1,2000E02
1007,73	-1,1749E02
1008,02	-1,3680E02
1008,30	-1,3947E02
1008,58	-1,1622E02
1008,87	-9,7070E01
1009,15	-1,5007E02
1009,43	-1,2442E02
1009,72	-1,1391E02
1010,00	-1,4682E02
1010,28	-1,5116E02
1010,57	-1,0090E02
1010,85	-1,4726E02
1011,13	-1,2161E02
1011,41	-1,1783E02
1011,70	-1,3302E02
1011,98	-1,2293E02
1012,26	-1,6504E02
1012,55	-1,0958E02
1012,83	-1,1426E02
1013,11	-1,1643E02
1013,39	-1,3686E02
1013,68	-1,5898E02
1013,96	-1,3624E02
1014,24	-1,5209E02
1014,52	-1,5644E02
1014,80	-1,4247E02
1015,09	-1,7776E02
1015,37	-1,3896E02
1015,65	-1,6357E02
1015,93	-1,4231E02
1016,21	-1,3998E02
1016,50	-1,3742E02
1016,78	-1,7504E02
1017,06	-1,3409E02
1017,34	-1,5535E02
1017,62	-1,7738E02
1017,90	-1,5284E02
1018,19	-1,4540E02
1018,47	-1,8151E02
1018,75	-1,8704E02
1019,03	-1,8670E02
1019,31	-1,9215E02
1019,59	-1,9567E02
1019,87	-1,7379E02
1020,15	-1,4632E02
1020,44	-2,2050E02
1020,72	-2,0532E02
1021,00	-1,6605E02
1021,28	-1,5795E02
1021,56	-2,0324E02
1021,84	-2,4996E02
1022,12	-2,2237E02
1022,40	-2,1159E02
1022,68	-1,6273E02
1022,96	-2,2376E02
1023,24	-2,4851E02
1023,52	-2,2073E02
1023,80	-2,2085E02
1024,08	-2,2085E02
>>>>>End Processed Spectral Data<<<<<
